1499540419330651998 -4 -3 0 -28 -4 -1 13 -2
1499540419382452964 -17 2 2 12 1 0 8 3
1499540419426434993 -14 -33 27 71 7 1 -5 -4
1499540419476690053 1 -1 9 92 14 5 4 1
1499540419527461051 -8 -1 11 -40 -3 -2 0 1
1499540419578267097 1 14 18 43 6 3 8 4
1499540419629780054 7 -1 23 47 4 2 0 -1
1499540419681222915 14 6 -20 -46 -3 -1 3 3
1499540419732130050 -1 -12 -26 -74 -16 -9 -5 -7
1499540419781882047 -3 2 6 39 2 1 0 1
1499540419831597089 7 7 23 67 13 5 0 -6
1499540419881791114 14 1 15 -12 2 0 3 10
1499540419933223009 2 0 -5 22 -4 -5 -3 5
1499540420013036012 0 -4 -13 -43 0 -1 -4 -5
1499540420033982038 -15 3 -21 -23 -2 0 -1 9
1499540420084630012 2 1 8 11 -1 -1 -4 8
1499540420136547088 13 -2 -3 -57 -5 -2 0 0
1499540420186340093 -2 -8 -11 -71 -8 -7 -4 -18
1499540420234486103 -2 2 1 17 -8 -2 0 13
1499540420294078111 -5 -5 5 27 -1 -1 3 13
1499540420335555076 8 -3 -17 16 -10 -5 -12 -52
1499540420388566017 0 -2 4 -16 6 0 -1 -2
1499540420435905933 4 3 9 -7 7 0 1 0
1499540420513870954 15 -3 -16 -75 -10 -4 -6 -15
1499540420537795066 0 3 27 57 9 3 5 4
1499540420617619037 1 4 20 25 4 1 -1 -6
1499540420638514995 -1 -1 -4 -24 1 0 -1 9
1499540420688982009 -2 -2 -4 5 -6 -5 -1 -1
1499540420738744020 -1 -9 -21 23 -4 -6 0 5
1499540420791281938 -5 -5 -17 -18 1 -2 -2 3
1499540420840852975 1 4 9 14 8 4 2 8
1499540420904455900 2 0 13 30 0 1 2 0
1499540420940228939 1 5 8 -19 1 2 2 8
1499540420992835998 2 -4 -18 -76 -5 -3 -2 0
1499540421042231082 -5 0 6 53 3 1 0 -9
1499540421093220949 -13 -1 2 16 2 -2 -3 5
1499540421143112897 3 -3 7 74 3 -2 -3 2
1499540421218853950 8 -5 -11 2 6 -6 -5 -4
1499540421246884107 10 -3 -13 -9 -6 -6 -5 -1
1499540421294697999 -12 -1 15 48 -8 -4 -10 -22
1499540421345316886 5 -1 -3 0 -5 -1 -1 0
1499540421394865036 -15 0 3 22 2 1 1 -25
1499540421445137023 -21 -2 6 8 -2 0 -4 -11
1499540421519215106 18 -7 -43 -94 -12 -3 -7 -5
1499540421548016071 2 1 1 35 1 -1 3 -20
1499540421598164081 -2 4 25 -5 7 3 -6 -9
1499540421647780895 0 4 -8 -13 0 0 6 16
1499540421700187921 -1 -2 -11 53 6 2 3 4
1499540421749893903 -1 1 3 -15 3 1 1 -1
1499540421823554039 4 0 20 55 4 -1 2 16
1499540421850863933 -5 -2 6 -25 -2 -1 -5 14
1499540421901909112 -1 -3 -28 -71 -12 -3 -2 1
1499540421950973033 -1 2 17 69 9 1 0 2
1499540422001725912 1 -1 0 -7 -2 2 -14 -6
1499540422052772045 5 -4 -2 19 9 -1 8 9
1499540422104260921 -9 4 12 18 16 3 4 0
1499540422153491020 -1 1 4 9 4 1 4 -1
1499540422204854011 -4 -5 -11 -45 -6 -4 -2 -4
1499540422254772901 -2 2 23 60 5 1 0 -1
1499540422305403947 -2 1 6 2 2 2 4 -7
1499540422356892108 8 1 5 -15 -10 -3 1 -1
1499540422407432079 -1 3 14 13 8 1 -4 1
1499540422457982063 -28 0 1 18 4 -1 -2 -2
1499540422509176969 5 0 -3 2 -2 -1 1 5
1499540422558552980 7 -2 -11 0 4 1 -19 7
1499540422610219001 8 -1 13 13 1 0 5 -5
1499540422659619092 6 4 18 51 5 1 4 5
1499540422710750102 2 -2 -12 -19 -3 -2 0 1
1499540422761329889 -11 -13 -41 -31 -6 0 9 -13
1499540422812520980 4 16 -5 -2 1 0 2 0
1499540422863301038 0 -21 3 6 -2 -4 -3 -7
1499540422914958000 -10 -16 -12 -14 0 1 -3 -2
1499540422965289115 1 12 -11 4 1 -3 -4 6
1499540423015949964 1 -11 -17 -35 0 0 -1 -6
1499540423066812992 -3 43 28 -53 -13 1 2 4
1499540423118810892 -3 -25 -15 19 -5 -9 -7 -11
1499540423168334960 -1 8 20 21 0 5 -2 -7
1499540423219106912 4 27 6 -41 3 2 1 -1
1499540423270637989 0 -4 3 -6 -3 -5 -5 -14
1499540423324373006 -4 30 -4 3 -5 -7 -2 6
1499540423373666048 3 -12 -4 -3 2 2 1 6
1499540423422116994 -8 92 32 7 3 4 5 53
1499540423472105979 -10 -26 -8 2 -3 0 -1 -9
1499540423525568962 -5 -9 -9 1 1 -2 -3 10
1499540423573874950 3 -27 -13 -13 -11 -13 0 11
1499540423627002954 -1 4 9 6 10 8 -8 12
1499540423677155017 -3 25 10 -9 -1 -4 1 10
1499540423727888107 0 -24 3 7 8 -5 6 -4
1499540423778757095 -3 10 -1 -10 -18 -4 -8 1
1499540423830029964 1 -1 -4 -5 0 1 -13 -4
1499540423880207061 -5 6 -4 -9 -6 -4 -12 2
1499540423930656909 -6 19 0 -8 -35 -7 -12 -3
1499540423981308937 1 7 -13 -12 -11 -4 -1 -2
1499540424030384063 0 6 -9 -8 36 -7 6 -2
1499540424080966949 1 -3 -41 7 60 12 6 -1
1499540424132289886 -2 -5 -10 3 -12 -12 -2 0
1499540424184221029 -1 -1 6 17 -18 -1 1 3
1499540424233138084 1 2 6 -4 39 -26 0 2
1499540424285701990 0 9 5 -1 8 14 9 2
1499540424333839893 0 -4 15 -8 1 -3 -1 -3
1499540424383877038 -3 -6 10 27 1 18 1 -3
1499540424436196088 0 3 7 -13 57 -22 -1 2
1499540424484848022 0 0 -9 -70 33 4 0 0
1499540424534811019 -3 -3 3 5 58 4 1 -1
1499540424606576919 -1 -2 -2 3 -84 -24 -10 -3
1499540424637968063 -2 -10 -4 -52 -30 -28 -8 -3
1499540424687748908 -1 3 -8 -3 29 7 1 1
1499540424738729953 0 6 2 -39 11 15 2 0
1499540424788686990 -2 9 42 80 -12 2 1 5
1499540424839968919 -1 -2 12 16 29 9 1 -3
1499540424931453943 -2 -6 -49 -105 -106 -23 -10 -3
1499540424942079067 -2 -11 2 -4 59 9 -4 -5
1499540424992949962 -1 9 53 89 16 8 0 -2
1499540425043369054 -1 3 -25 -48 -51 7 2 2
1499540425094046115 -1 -1 -32 -15 -3 -1 -3 -2
1499540425144562959 -2 2 28 -3 12 17 6 3
1499540425214981079 1 0 -2 -10 19 -6 0 -2
1499540425247829914 -3 -2 -20 -46 -61 -2 -3 -2
1499540425297569036 -3 -2 -39 -28 -22 -1 -1 1
1499540425347971916 1 -6 -7 8 24 -10 -7 -5
1499540425398266077 1 5 50 46 50 57 23 7
1499540425450205087 3 -4 45 23 -5 7 17 16
1499540425514070987 0 -11 -49 -14 -57 -1 6 19
1499540425550240039 -2 -1 -21 40 31 16 -14 -35
1499540425601950883 -2 -24 -104 -96 -79 -10 -6 -21
1499540425651602983 -3 -11 68 -46 -7 -5 25 37
1499540425703604936 -4 2 4 -1 -1 5 -18 -5
1499540425753510951 -1 -5 28 34 -5 -16 -6 1
1499540425818594932 -1 22 -38 -20 27 5 5 7
1499540425854182004 -3 -17 53 61 -8 28 -8 -10
1499540425907104015 -1 28 -38 -25 -27 11 13 9
1499540425955470085 1 13 9 -63 0 -17 -19 -4
1499540426006023883 0 -5 -67 89 -53 22 21 24
1499540426056063890 1 -15 -34 -91 -11 -9 0 10
1499540426128422975 -2 57 84 9 48 37 -2 -1
1499540426156115055 1 -11 -113 -58 43 23 36 29
1499540426207468032 0 -7 1 2 12 -9 -8 -12
1499540426259831905 2 -35 -5 42 -51 11 -42 -40
1499540426308573961 -2 21 -86 -8 26 2 26 27
1499540426357566118 0 -22 9 13 54 -62 -30 -10
1499540426426377058 -5 -4 80 -109 17 11 10 7
1499540426457926034 1 -2 7 42 -28 7 -3 -1
1499540426508263111 -9 -15 -23 84 -29 -21 -8 -8
1499540426558314085 0 9 -21 -90 -18 -4 -61 -8
1499540426608599901 -2 -3 16 8 -85 9 3 10
1499540426660265922 -4 7 0 58 4 -24 -5 -11
1499540426710310935 3 36 10 21 122 6 10 5
1499540426760055065 -3 -21 -1 -97 37 5 -7 -11
1499540426809427022 -4 -19 -4 -33 -77 -2 19 -23
1499540426859461069 3 -12 8 -33 -15 -2 -11 4
1499540426909719944 0 15 -2 -34 -5 2 47 4
1499540426960421085 -2 27 11 13 28 15 12 7
1499540427010670900 -10 -6 1 -2 -11 -6 -15 -2
1499540427061171054 -4 -4 26 29 -20 -6 -16 -4
1499540427110991954 -5 -1 -13 1 37 13 10 11
1499540427162425041 -1 15 11 7 14 12 8 26
1499540427212261915 -2 4 35 12 5 -5 -36 -31
1499540427264847993 0 -15 -29 16 59 14 -45 -39
1499540427313335895 -1 -18 -128 -87 -76 -16 -7 12
1499540427363996028 -5 -4 -80 -40 -21 -11 0 -5
1499540427415359020 -3 -4 127 29 8 0 -1 -5
1499540427465708971 -8 -13 -26 8 -7 0 38 48
1499540427515458106 4 11 24 88 -19 -26 5 -11
1499540427565498113 1 3 -49 15 7 -34 -16 -33
1499540427621391057 0 8 11 11 -93 5 -13 -2
1499540427666858911 -4 -13 19 -19 31 -3 -32 -16
1499540427717756032 -7 -1 15 -23 -44 -24 1 -7
1499540427766968965 0 -7 -13 -14 40 4 7 3
1499540427818036079 2 -3 46 -21 79 8 7 8
1499540427867556095 0 -2 0 41 29 7 4 2
1499540427919601917 9 8 -23 -34 86 8 22 22
1499540427975133895 7 6 -8 39 127 5 27 6
1499540428020278930 -12 16 -7 -27 -59 -5 -11 -13
1499540428068835973 7 -26 -4 6 -30 -1 -10 0
1499540428119379043 -8 1 0 -24 -20 -5 -1 -3
1499540428171780109 6 -8 -8 -12 -28 -4 1 -5
1499540428220041036 -10 0 -4 -7 -5 -1 -5 -5
1499540428270179986 -18 4 -8 3 -9 0 -3 1
1499540428322349071 1 -4 -8 -14 -7 -1 -1 0
1499540428372472047 -1 -5 -2 -5 -9 1 2 -2
1499540428424134969 -28 -9 -34 -104 -53 -14 -7 -4
1499540428475589036 -19 -1 -4 -15 -12 -4 -1 -1
1499540428526222944 6 -6 -1 20 -7 -5 -3 -3
1499540428586527109 4 2 3 1 8 -13 -2 1
1499540428627413988 -6 0 5 21 -18 -2 -3 -2
1499540428677640914 5 -1 2 -23 18 4 1 -2
1499540428728621959 1 -2 -11 7 24 -5 -3 -1
1499540428780163049 -4 -3 -8 12 -1 2 1 -2
1499540428830084085 5 1 0 6 -10 -3 -2 -1
1499540428905054092 -3 1 -2 -12 -8 -5 -2 -1
1499540428937309980 -1 0 -6 18 0 -2 -3 -3
1499540428983525037 -2 1 -2 -4 -25 -5 -2 0
1499540429034559011 -2 -1 2 -7 2 0 1 0
1499540429084584951 -3 0 -8 -5 0 -3 -2 1
1499540429135068893 6 0 3 -7 4 1 1 0
1499540429230957031 -6 -5 -5 5 10 -3 0 -1
1499540429235071897 -5 3 9 1 3 -12 -3 -2
1499540429288297891 0 0 1 -63 -17 2 -2 -3
1499540429337085962 -14 -1 -3 -73 -16 6 -3 0
1499540429387078046 3 -1 1 -3 11 0 -1 -1
1499540429437778949 -9 0 0 -1 -16 -7 0 -2
1499540429506422042 2 -1 0 6 -5 -5 1 -1
1499540429541145086 -2 -2 -4 1 7 -3 1 -1
1499540429590274095 -3 -2 -2 9 6 2 -2 -2
1499540429641789913 -5 1 3 -1 9 3 -1 -1
1499540429690752983 1 -1 0 -6 -29 -6 -1 -2
1499540429741053104 -5 0 1 0 11 -2 -1 0
1499540429825670003 4 0 0 -2 -11 2 -1 -2
1499540429841337919 -1 -1 -1 -13 -6 6 -1 -2
1499540429892694950 -2 1 0 -4 -17 -4 -2 -4
1499540429943670988 -3 -2 0 9 7 -1 -4 -5
1499540429993993043 0 -1 -1 3 11 -2 1 -2
1499540430044807910 -2 0 -5 -8 -1 -6 -4 -1
1499540430138653039 0 -1 -1 -6 -7 0 0 -2
1499540430145930051 -4 0 2 15 40 2 -1 1
1499540430196346044 -1 1 2 8 27 -12 -2 -2
1499540430246843099 1 0 1 -5 -10 3 1 1
1499540430297471046 -2 -2 -2 0 20 -2 -3 -3
1499540430355607032 -1 -1 -3 0 -5 1 1 1
1499540430399693965 -3 1 -1 -5 -8 1 -1 -1
1499540430448699951 -4 -3 -4 -7 11 -2 -2 -1
1499540430499932050 -2 -2 0 -11 -58 0 -2 -3
1499540430550442934 -3 0 3 5 5 4 0 1
1499540430601147890 -4 0 -4 -20 -21 -3 -2 -4
1499540430652334928 -1 0 -3 -5 -10 -1 0 2
1499540430702955961 0 -1 -1 12 7 -1 0 -1
1499540430753902912 -7 -1 3 -1 10 1 0 -3
1499540430803464889 -3 -1 -4 0 5 2 -1 0
1499540430854003906 -12 0 0 1 -6 -4 -2 -2
1499540430904073953 1 -1 -1 -2 -6 -6 -4 -2
1499540430956531047 -3 -1 -2 3 15 -5 -5 -3
1499540431006957054 14 -3 -1 4 8 -1 1 -2
1499540431056965112 -10 -1 1 -6 -6 0 1 -1
1499540431110831022 -16 -2 -6 10 39 2 1 0
1499540431158273935 5 -2 0 -3 -11 1 -1 -1
1499540431208220958 10 -1 -2 -6 -10 -15 -2 -1
1499540431261761903 -8 0 -5 -4 -12 2 4 0
1499540431309636116 6 -3 -2 -7 -5 -11 -1 -1
1499540431381227016 -6 -1 3 -6 8 3 0 1
1499540431410051107 -16 -3 -4 -6 -8 1 0 -1
1499540431462937116 -12 -1 -1 1 -7 2 -1 -1
1499540431512533903 -2 0 -1 -6 -7 -5 -2 -2
1499540431561791896 6 0 3 4 5 -13 -3 -1
1499540431612524032 12 -2 1 9 25 6 0 -1
1499540431669333934 3 0 -1 5 -3 -5 -3 -3
1499540431714617967 7 -1 -2 0 -9 -3 -1 0
1499540431765460014 -12 -3 0 -10 -8 -3 1 -1
1499540431814733982 34 1 0 -5 -11 2 0 -2
1499540431865011930 -13 -2 -4 -3 -8 -3 -2 -3
1499540431916085958 -4 0 3 -4 -3 1 -3 -1
1499540431986848115 2 -3 -6 -4 15 -4 -4 -2
1499540432018156051 -6 1 5 5 -12 1 1 0
1499540432068928956 -8 -3 -3 -11 -12 -4 -2 -1
1499540432119757890 -9 -2 -10 7 10 2 0 0
1499540432170411109 -14 -3 1 -1 0 -2 -2 -3
1499540432220403909 -3 -1 0 -14 -39 -8 -1 0
1499540432283991098 1 -1 1 -2 15 3 0 0
1499540432321099996 1 2 0 0 13 6 2 0
1499540432370843887 0 -3 -2 12 20 2 -1 -1
1499540432423506975 -3 -1 2 6 0 -1 -2 -2
1499540432472168922 -1 -2 -2 4 3 -4 -1 -1
1499540432523621082 -2 -3 -2 8 3 -2 1 -2
1499540432573271989 2 -3 -3 -12 -31 -14 -4 -1
1499540432624757051 -1 0 -2 -2 5 -3 -2 0
1499540432674849987 2 -1 -1 5 0 -1 -3 0
1499540432727152109 0 -3 -6 3 15 0 0 -1
1499540432775590896 5 0 0 -3 -7 -1 0 0
1499540432826663970 -6 0 1 -2 5 -1 -2 -1
1499540432877794981 -16 -1 0 7 -1 -6 -6 -4
1499540432927846908 -13 -3 -8 -1 -12 -2 -2 -1
1499540432977699041 -10 2 3 -1 31 7 3 2
1499540433028193950 -12 -3 -3 12 9 -3 -4 -3
1499540433078191995 7 0 -1 -3 5 -3 -2 -1
1499540433128674983 1 -4 -5 -32 -14 -8 -2 0
1499540433185772895 4 -2 -10 -4 6 -5 -3 0
1499540433229830026 -21 -1 3 -2 -11 0 -1 -2
1499540433279964923 6 -2 -1 4 2 3 0 1
1499540433330311059 -27 -1 8 7 12 2 1 0
1499540433379710912 -14 -4 -9 11 -17 -8 -4 -2
1499540433431951999 -5 -1 -4 -54 -12 -1 0 -2
1499540433497454881 9 -4 -6 -14 8 -5 -3 -5
1499540433534105062 5 6 10 41 -29 1 0 1
1499540433584026098 -1 -1 4 9 0 2 1 -1
1499540433634485006 -9 -3 -6 -12 -20 -9 -3 -1
1499540433684654951 -6 -5 -5 -30 24 3 -2 -4
1499540433736807107 -6 1 3 18 -3 -1 0 0
1499540433812306880 2 0 5 27 1 -1 -1 0
1499540433836643934 -5 -2 1 15 3 0 -2 -1
1499540433886756896 -11 -2 1 35 -3 2 -2 -2
1499540433940071105 -2 3 4 50 59 -29 2 3
1499540433987427949 -1 -3 -2 11 -19 4 -2 -3
1499540434038500070 6 -3 -6 -55 -16 -3 -5 -2
1499540434127286911 3 1 0 19 -3 20 0 3
1499540434140392065 -14 -2 -7 -56 -16 -5 -4 -3
1499540434194683074 -6 -3 -3 78 13 5 2 -1
1499540434240504980 -1 -7 -7 -70 -5 -2 -1 -1
1499540434290437936 -4 -5 -10 -14 -5 -4 -4 -4
1499540434341588020 -8 -6 -14 39 -24 -11 -1 0
1499540434391900062 9 6 7 10 20 -8 1 1
1499540434442929029 -13 -7 -8 25 -20 1 -4 -4
1499540434493719100 17 -2 -37 -67 -5 -1 -1 1
1499540434543255090 2 0 14 52 3 11 0 -2
1499540434595252990 -18 -3 6 34 -8 18 2 0
1499540434643874883 1 1 -13 14 -3 -2 2 4
1499540434693645954 1 -6 2 10 -37 6 -8 -5
1499540434744568109 -8 0 0 -10 9 -4 0 -3
1499540434794262886 1 -1 -23 -4 -16 -8 -1 -3
1499540434844399929 -1 -6 2 5 60 0 -5 -5
1499540434896735906 -2 -6 -5 36 3 -10 -4 -5
1499540434945338964 5 -2 10 22 3 2 -3 0
1499540434995492935 -5 -2 14 -42 -30 9 -1 -2
1499540435044122934 2 -2 -9 23 -4 6 0 -1
1499540435095571994 4 0 7 26 -3 5 2 -1
1499540435145909070 2 -4 -11 -13 -7 -1 0 -2
1499540435197149038 7 -1 0 -17 -9 3 0 3
1499540435248151063 2 -1 2 50 12 -7 -5 -3
1499540435297249078 0 1 7 7 1 -9 -2 -2
1499540435360271930 -4 6 24 -59 -24 -4 -1 -2
1499540435399873018 -3 -6 -6 -52 14 -9 2 -1
1499540435447534084 -5 3 4 37 20 7 2 3
1499540435500279903 3 -7 -14 -17 -12 -9 -4 -1
1499540435551105976 2 -8 -21 9 0 -9 -4 -5
1499540435598625898 -6 -3 1 31 -5 5 -2 -5
1499540435671247005 1 5 -2 -34 15 -4 0 -1
1499540435698239088 3 1 2 2 -15 1 0 0
1499540435750730991 -3 2 1 -17 -7 -8 -2 1
1499540435803679943 3 -1 -3 8 -22 -11 -2 0
1499540435851419925 0 -1 10 -12 -8 4 1 0
1499540435903259992 -1 0 0 -14 4 2 0 -1
1499540435976752042 4 -3 2 41 3 -4 -4 -5
1499540436004699945 -3 -3 2 41 3 -4 -4 -5
1499540436056078910 -2 -2 1 -9 15 5 2 -1
1499540436106539964 0 -5 -1 -5 14 3 -4 -4
1499540436157190084 -4 -1 1 -3 1 1 1 -2
1499540436208015918 4 -4 -18 -3 -4 0 -1 -1
1499540436275820016 0 2 8 -25 -8 1 -3 -2
1499540436308188915 4 1 12 -4 -33 -14 -8 -4
1499540436359045982 2 -1 15 2 10 1 1 0
1499540436411346912 -4 3 -3 -29 -17 -6 -2 -1
1499540436458543062 8 3 -1 29 16 22 9 4
1499540436510828971 -5 4 -21 -25 -17 -14 3 12
1499540436571264982 1 -11 -39 -24 38 -12 -14 -20
1499540436610199928 -1 1 4 -64 -1 8 6 23
1499540436661772966 0 -8 -58 53 -14 -13 -12 -14
1499540436711370944 14 -4 -40 51 -61 8 -4 -24
1499540436761058092 -4 25 122 -6 16 -2 8 15
1499540436811345100 -8 3 53 104 45 13 20 23
1499540436875612974 14 4 31 63 16 16 -1 -12
1499540436925931930 0 -8 1 -53 1 9 5 -10
1499540436963150978 -6 -4 38 -8 -26 0 -14 -32
1499540437014470100 -10 -5 13 26 4 16 19 17
1499540437064584970 25 -12 -15 41 23 -2 -17 -13
1499540437113996028 0 -10 -52 -67 -28 -6 -13 -3
1499540437186707973 42 0 33 -43 14 9 3 -1
1499540437215596914 24 -4 -128 -117 -23 -11 8 -19
1499540437267702102 14 30 -37 -13 -14 -3 17 31
1499540437318717956 63 -8 -22 -52 -35 -17 -6 2
1499540437367829084 -8 6 93 121 15 16 1 -31
1499540437420232057 -6 -10 4 11 -2 24 -1 -4
1499540437502551078 3 0 -116 -66 -26 -24 -9 -44
1499540437520498037 6 0 -116 -66 -26 -24 -9 -44
1499540437572278022 -5 -4 -28 -22 4 -16 -18 -11
1499540437620286941 3 -15 28 53 -13 -19 -20 -35
1499540437671014070 2 0 13 13 27 15 11 27
1499540437721817016 -1 -1 24 13 -16 -3 -4 0
1499540437777308940 2 2 -1 33 1 6 1 0
1499540437823513984 0 6 16 -64 -4 3 -5 8
1499540437873894929 -4 -11 -24 43 -29 -8 1 -12
1499540437924128055 1 -4 40 41 12 -4 -12 -7
1499540437973937034 -1 0 -2 10 0 -9 -16 -36
1499540438025721073 -3 19 -51 -17 -22 -1 1 20
1499540438077888011 -1 -3 5 42 9 5 -3 2
1499540438128139019 0 -6 14 -8 2 -7 2 10
1499540438180975914 -3 0 -25 -34 -28 -9 -1 -1
1499540438229413986 -1 -4 88 47 -1 11 -10 -14
1499540438279553890 0 -11 -40 -82 -43 -17 -6 -2
1499540438330174922 -1 6 52 49 22 9 4 5
1499540438380534887 0 7 -12 44 51 -11 -3 -1
1499540438434416055 1 -11 -28 50 -6 7 18 8
1499540438482095003 -1 3 78 10 23 18 -7 4
1499540438531022071 -1 -4 10 -19 -23 -7 -17 -4
1499540438582690000 -4 -1 -17 -60 -19 3 6 26
1499540438633472919 -2 -2 -80 -7 9 -38 4 3
1499540438684578895 0 -4 26 41 16 19 4 4
1499540438733978986 0 0 -2 11 -17 -15 -3 5
1499540438784538984 -1 -1 3 40 -20 3 7 -1
1499540438836314916 -1 -4 -4 6 -9 -1 -5 -2
1499540438886677026 -2 -8 -38 24 68 -79 37 36
1499540438939826965 -36 4 38 14 -20 24 -13 0
1499540438988045930 13 6 16 -30 1 9 -1 -10
1499540439039561986 0 0 12 11 26 25 5 0
1499540439087609052 -9 10 50 72 76 54 6 2
1499540439138436079 3 -8 -41 -1 -33 -13 -12 -8
1499540439189065933 2 -3 -23 0 29 -15 -2 -2
1499540439241003036 -2 -3 52 -1 25 2 -7 -2
1499540439291667938 -14 -4 -8 -44 -31 -7 -15 -13
1499540439353015899 2 -2 -23 -39 -51 -18 -9 -12
1499540439390194892 2 1 -39 -44 1 -2 -2 3
1499540439441538095 0 8 2 42 -11 8 12 2
1499540439491734981 -1 2 22 7 25 25 -53 -25
1499540439543942928 -1 -11 -7 -7 7 -1 0 -32
1499540439593148946 -1 13 6 -43 41 13 8 12
1499540439647766113 0 5 -1 31 -5 -2 -12 -6
1499540439694895982 -1 1 -2 -3 -32 23 10 -12
1499540439744338989 0 -1 -12 27 21 3 6 -12
1499540439794646978 0 0 3 79 -7 8 4 1
1499540439845273017 -2 -3 -9 -1 -1 -1 -8 -11
1499540439899493932 -2 -4 -12 -16 -35 -6 -1 -3
1499540439947421073 -1 -5 -6 2 -26 -10 -5 -3
1499540439997324943 -1 -4 -13 -33 20 -14 -7 -1
1499540440048664093 -1 1 3 -7 4 9 3 4
1499540440098984956 0 2 8 -3 -13 -2 0 1
1499540440148679018 -4 -6 -33 -46 0 4 1 2
1499540440198698997 -3 -1 13 21 -7 -2 1 -1
1499540440266462087 -1 2 4 24 5 3 1 2
1499540440301397085 -1 1 9 -10 -7 -5 0 -2
1499540440351989030 0 -1 4 13 4 0 -1 -3
1499540440401274919 -2 -5 0 -3 -14 -4 -3 -4
1499540440451239109 -3 -5 -2 -22 -3 -14 -8 -2
1499540440503613948 -2 2 -2 11 -19 -3 1 2
1499540440555407047 -1 -2 -5 -26 -26 -2 -4 -3
1499540440606357097 -1 1 -7 -3 4 -14 -4 1
1499540440660167932 0 -1 5 -1 -9 8 0 0
1499540440705846071 -1 0 -10 -62 -22 -4 -1 -3
1499540440757648944 -2 -1 1 7 21 1 0 0
1499540440809254884 0 -2 0 4 -24 3 1 0
1499540440885035991 -11 -1 -8 -18 16 3 0 0
1499540440906667947 -5 0 2 12 4 1 0 -2
1499540440958887100 11 -8 -14 -48 -19 -9 -4 -2
1499540441008200883 -3 1 9 25 35 0 -3 -1
1499540441060204029 -6 0 -5 11 -11 2 -1 -2
1499540441109684944 12 1 4 2 18 12 2 -1
1499540441191243886 -15 1 -5 -11 -9 -2 1 2
1499540441213551998 0 0 7 -26 -13 -10 -5 -5
1499540441260811090 10 -2 -6 15 10 -3 -1 0
1499540441312618970 -2 5 -5 -69 -10 6 2 2
1499540441367831945 -5 -2 1 14 -7 -4 -2 -2
1499540441412789106 -2 -4 -10 24 -17 -6 -3 -3
1499540441482264041 1 -1 0 8 -1 3 -1 -1
1499540441518187046 -1 -4 12 46 -3 -4 -1 -1
1499540441565675020 -3 -3 -8 3 -23 -4 -2 -3
1499540441615561008 4 -1 -1 -67 -2 3 -1 1
1499540441669599056 1 -3 -7 6 -2 -5 -1 -3
1499540441716638088 -12 -3 3 13 14 -7 -3 -2
1499540441766699075 0 -4 -1 -9 -14 -2 -3 -4
1499540441818140029 -2 -4 2 54 5 -6 -2 -1
1499540441869743108 -3 -6 -8 -16 -17 -5 -2 -3
1499540441920809030 -8 0 -5 -20 4 1 0 0
1499540441970679044 -5 0 3 -4 -10 1 0 0
1499540442020972013 -7 -2 -6 -21 -33 -12 -3 -2
1499540442073765993 4 -1 -19 -55 7 1 -1 -2
1499540442134793996 1 -2 3 13 15 11 3 1
1499540442174770116 -2 -8 -1 5 -2 -1 -3 -3
1499540442225693941 3 3 27 22 41 3 1 -1
1499540442278172969 -4 -2 -3 25 31 -7 0 1
1499540442326659917 -6 -1 -3 -7 -37 1 3 3
1499540442377480030 -2 -6 6 7 25 -4 -6 -8
1499540442430757045 -2 -4 -8 -35 -20 -3 -3 -3
1499540442481379032 1 1 13 8 2 4 1 -2
1499540442533924102 -1 2 17 24 4 3 1 12
1499540442581232070 -1 -6 20 12 33 7 -24 -33
1499540442631082057 0 1 -37 7 8 8 8 3
1499540442681484937 -10 11 96 104 -12 17 3 15
1499540442731525897 20 -17 51 13 -9 -18 5 3
1499540442781279087 17 8 -49 20 -32 -12 -25 -29
1499540442831599950 3 4 14 87 18 -15 -59 -69
1499540442881704092 -4 -19 -71 -53 -29 -15 -5 -5
1499540442935193061 4 10 -13 -60 -20 -1 31 22
1499540442983514070 6 3 18 38 -9 -4 5 12
1499540443034205913 9 -19 6 24 2 -10 5 -1
1499540443084678888 -7 10 51 57 13 26 -11 7
1499540443137614011 3 -5 -56 23 -6 -69 -40 -37
1499540443184798955 -11 -15 -26 -97 -48 1 -12 -14
1499540443235217094 3 13 1 3 -10 20 13 26
1499540443284817934 2 -5 29 98 29 0 11 13
1499540443335321903 20 22 -7 -57 59 32 45 97
1499540443385396957 -27 -2 -84 -49 -7 2 -19 -25
1499540443437099933 29 6 17 -3 0 18 23 32
1499540443485523939 7 -13 -66 -18 29 -48 -13 -6
1499540443536540031 -17 -8 23 51 12 3 -15 -26
1499540443586574077 1 -4 48 -6 -17 -8 -19 -34
1499540443636840105 -7 14 82 7 7 8 9 -6
1499540443687724113 12 -8 -68 37 -13 -9 -21 -14
1499540443736648082 2 -23 25 -5 -37 -9 -5 -2
1499540443787533998 -35 11 2 30 -52 -21 -1 5
1499540443836695909 -3 5 -21 -98 -117 -27 33 31
1499540443887754917 4 -3 -57 -120 -72 6 20 11
1499540443942897081 5 9 61 97 47 14 -13 -11
1499540443987884998 3 -8 -9 -2 10 3 12 28
1499540444040009021 -1 -22 -40 -13 -39 -17 -26 -44
1499540444089241981 2 9 19 -27 21 7 -12 -9
1499540444141343116 -5 -1 -30 -74 -93 -18 -10 -9
1499540444190798997 -3 -15 -39 -80 -34 -14 -18 -18
1499540444251738071 4 6 2 11 -35 3 11 4
1499540444292082071 -2 22 -47 -4 105 65 79 66
1499540444342343091 -8 -4 36 56 22 14 -21 -11
1499540444392739057 0 -6 -37 -18 -31 -10 -7 -9
1499540444444235086 -2 14 24 -14 0 6 -7 -13
1499540444495210886 -3 -7 7 31 31 -5 -13 -10
1499540444558829069 -32 -5 -77 62 10 -1 -3 -1
1499540444594893932 -91 3 -45 -9 15 7 -2 -4
1499540444643944025 -59 3 -45 -9 15 7 -2 -4
1499540444695019960 -8 -6 5 2 -26 9 9 22
1499540444745240926 -30 10 0 27 -19 -11 -14 -5
1499540444795022010 12 0 -48 -39 67 33 -4 -13
1499540444864849090 -8 4 6 -19 49 -22 -4 -4
1499540444897711992 -8 -8 -11 -5 -46 -16 -17 -17
1499540444948194980 1 -6 2 19 6 5 -32 -71
1499540444999100923 -8 -16 -27 -55 5 -5 24 -9
1499540445050570964 -4 4 15 41 17 15 20 16
1499540445101274967 -3 1 -1 26 -5 -1 -29 -32
1499540445175139904 -3 -1 -6 -52 -14 -10 -7 6
1499540445203738927 -1 -2 7 14 10 10 4 2
1499540445254606962 3 2 8 -37 -3 10 -2 8
1499540445305363893 2 -1 3 32 2 4 3 0
1499540445356767892 1 -2 4 17 3 -8 0 0
1499540445406810998 -16 2 9 29 18 -7 -4 1
1499540445480511903 -3 -8 -5 17 27 14 1 -3
1499540445507193088 -2 -3 5 -6 -8 -16 -3 -2
1499540445559204101 -9 0 -4 -34 -15 1 2 2
1499540445607831954 -8 0 2 49 -8 -5 -2 0
1499540445662055969 -5 -4 0 24 -2 -20 -3 -5
1499540445709638118 -1 -2 0 15 3 14 2 0
1499540445760476112 0 -2 3 15 -13 -11 -3 -1
1499540445810866117 -1 2 14 21 -15 -22 -10 0
1499540445861327886 -1 -3 -9 13 0 22 5 -1
1499540445911504030 -1 -1 -7 -1 18 45 4 1
1499540445961102008 2 -2 -2 1 9 25 1 -5
1499540446012511968 0 2 -8 -18 -17 -23 -1 1
1499540446063800096 -2 -5 -10 -30 -26 -23 -10 -5
1499540446113399982 -2 3 3 20 41 18 3 0
1499540446162806987 -2 -7 65 14 61 -8 -2 -2
1499540446212646007 -4 17 -25 -10 -18 -16 -3 2
1499540446264023065 11 -7 -21 -17 -12 -15 -2 -4
1499540446313828945 -2 -6 30 4 5 12 5 3
1499540446365271091 1 -62 8 8 5 4 -1 -12
1499540446488406896 24 -30 -27 -4 -4 -3 -5 -8
1499540446618300914 41 -71 24 4 -7 4 -6 -11
1499540446618612051 -9 -12 -40 -15 -9 -6 -2 -5
1499540446618726015 -7 3 9 1 -13 -1 -2 0
1499540446641779899 -2 -16 14 -18 -20 -5 -2 -3
1499540446717288970 -5 -16 6 -15 17 -7 -2 -3
1499540446816718101 13 -3 -20 21 4 -4 -3 -2
1499540446996651887 -1 -13 -3 -5 1 -3 -2 -6
1499540446996697902 -1 26 26 -4 12 -2 2 6
1499540447045341014 0 -11 7 35 5 0 2 1
1499540447045613050 -3 4 -1 19 21 5 3 1
1499540447048360109 -1 4 -1 19 21 5 3 1
1499540447096049070 -1 -2 25 53 12 4 -2 -1
1499540447150847911 -3 15 26 60 3 10 6 4
1499540447197252035 -2 -11 -6 2 1 2 -3 -4
1499540447248186111 0 16 12 86 15 1 0 0
1499540447322163105 -6 -10 -38 53 -2 -6 -2 2
1499540447372801065 7 -17 -35 -123 -30 -16 -6 -5
1499540447424500942 5 -17 -27 -77 -48 -14 -7 -8
1499540447626635074 64 9 61 72 23 5 0 0
1499540447903139114 -52 -13 -12 -46 -10 -4 -2 -4
1499540447903179883 -25 -2 9 -4 -2 -1 -1 -2
1499540447903215885 42 11 16 43 8 4 2 3
1499540447903250932 -71 -10 -15 -54 -35 -7 -3 -2
1499540447903280973 -8 7 20 -65 -5 -1 0 -1
1499540447903316020 -37 3 -4 -20 18 -11 -2 4
1499540447903347969 -27 8 8 126 23 11 5 3
1499540447903378009 13 -13 -36 -104 -1 -2 -3 -4
1499540447937275886 16 2 2 -16 -21 3 -1 4
1499540447977766036 37 -8 0 18 8 -3 -1 -1
1499540448029346942 -14 -5 -7 -37 -12 -2 -2 -3
1499540448079821109 10 -6 -11 -28 6 5 -2 -5
1499540448126892089 -73 -5 -7 57 2 0 -2 -4
1499540448180919885 10 8 31 41 -9 -4 3 0
1499540448251060962 -10 -8 -1 -32 -5 -3 1 -3
1499540448281126976 10 5 17 84 30 -2 3 3
1499540448333091020 5 7 6 -45 11 14 5 5
1499540448384368896 25 -9 -3 25 -3 7 0 2
1499540448432714939 2 -12 -17 20 -21 -9 -6 -3
1499540448484296083 14 17 25 2 65 14 8 3
1499540448548831939 -3 6 -16 -57 -43 13 1 -7
1499540448584913969 43 -11 -15 -54 -29 -3 -6 -5
1499540448634690046 -18 -3 -8 23 -9 -7 -4 -2
1499540448687366008 -13 -5 -5 -8 -1 -1 -2 0
1499540448741228103 10 -10 -17 -40 -17 -19 -4 -3
1499540448788628101 7 -10 -28 -26 -33 -7 -3 -5
1499540448866151094 10 7 18 47 11 3 2 2
1499540448890780925 -9 2 -5 -1 -12 -3 -1 -2
1499540448941167116 12 2 2 33 -4 0 1 -1
1499540448989243030 -32 2 15 4 4 1 -1 0
1499540449041199922 7 -2 3 46 -5 -4 -1 0
1499540449089148998 -10 0 5 28 9 -1 -1 0
1499540449141064882 49 -7 -7 0 -8 -5 -4 -2
1499540449189780950 -24 -5 3 -19 3 0 0 -1
1499540449240550994 29 -4 -14 -16 -7 -2 -2 0
1499540449289747953 4 0 -2 32 -6 -2 -2 0
1499540449339818954 14 -1 -8 -1 5 -2 -1 0
1499540449391222000 2 -6 -7 -17 -5 -3 -3 -6
1499540449442665100 -4 -5 -5 22 -3 -4 -2 0
1499540449491368055 3 -1 -1 3 -3 -1 0 2
1499540449543432950 -34 -2 2 22 0 -2 -5 -3
1499540449593998908 -19 3 14 37 5 2 2 1
1499540449650490999 33 -5 2 -29 -4 0 0 0
1499540449694873094 -3 -6 -6 15 -1 -5 -4 -1
1499540449745491981 27 1 7 8 -2 0 0 -2
1499540449797580957 -2 1 -1 -73 2 2 -1 0
1499540449848532915 43 -3 -10 -12 -10 -3 -1 -2
1499540449897631883 40 -4 -19 -25 -3 1 1 -2
1499540449947411060 33 -1 4 -13 6 1 -2 -1
1499540449998372077 1 0 -1 19 -3 -1 0 0
1499540450048315048 1 2 13 40 -10 0 -1 0
1499540450099958896 22 -3 -22 -15 -7 -2 -3 -5
1499540450148859024 -40 1 12 26 3 1 -1 -3
1499540450201637029 -62 -4 -5 -36 0 -1 -4 -3
1499540450248902082 15 -3 -3 16 11 0 0 -2
1499540450300118923 13 -1 -6 -20 -8 -1 -1 2
1499540450349663972 3 1 14 31 23 3 2 0
1499540450398653984 3 1 14 31 23 3 2 0
1499540450450942993 -3 -5 -7 12 -16 -7 -6 -3
1499540450500240087 -35 -1 -10 -74 -18 -2 2 0
1499540450551623106 -1 -1 11 34 -17 -2 -2 -1
1499540450600346088 7 -5 -14 -80 -5 -7 -2 -1
1499540450650974035 -1 6 9 5 23 8 1 2
1499540450700643062 -1 0 0 -19 -16 1 -3 3
1499540450797815084 3 -3 2 3 1 -11 -44 -17
1499540450803998947 3 1 27 39 1 2 -1 2
1499540450851494073 -5 1 27 39 1 2 -1 2
1499540450902700901 5 1 12 50 1 1 1 2
1499540450955936908 -1 -1 -5 12 -11 -3 -5 -4
1499540451008824110 -4 0 -5 38 2 -1 -3 -5
1499540451054305076 4 -6 -10 -18 -10 -6 0 -4
1499540451103451013 -12 -3 2 28 6 2 1 0
1499540451155765056 -1 0 2 -23 -5 1 -2 -6
1499540451203619956 17 -11 -17 -8 -13 -8 -7 -6
1499540451254653930 5 3 2 -7 2 0 0 -3
1499540451314079046 -2 -1 -3 0 1 0 0 1
1499540451358237028 -2 2 3 -12 10 1 2 2
1499540451407592058 -1 -2 6 30 2 8 1 -4
1499540451457226037 -17 -1 -7 -2 -3 -3 -1 -4
1499540451507057905 21 1 5 2 1 -3 -4 -3
1499540451557423114 -9 -1 0 -17 1 -2 -3 -1
1499540451630673885 7 -1 -1 23 4 2 0 -1
1499540451659286975 27 -4 -2 -12 5 -1 1 2
1499540451708396911 -16 -2 -4 -7 -6 -6 16 0
1499540451778824090 -2 -2 6 9 0 4 18 10
1499540451808516979 -9 -5 4 11 -11 -6 -5 -6
1499540451859822034 -7 1 6 71 2 -1 -9 -3
1499540451933465957 -5 -3 -19 -72 -12 -1 6 0
1499540451961057901 -4 -4 -3 -3 -6 -3 -6 -7
1499540452011482954 1 -2 -6 3 3 -2 -1 0
1499540452062678098 7 -2 -16 -30 5 -4 -5 -2
1499540452113642930 3 -2 -2 -36 -7 -1 -3 -1
1499540452170368909 4 -2 0 44 -5 -3 -1 0
1499540452240458965 -3 -4 -10 -4 -2 -3 -2 1
1499540452264997005 5 -3 -9 -20 -10 5 -4 -5
1499540452318217039 -2 -1 -2 -102 -2 -3 -11 -7
1499540452365052938 0 1 -2 26 4 4 25 11
1499540452414449930 -2 -2 5 30 -1 -1 0 0
1499540452464653968 -12 -2 2 52 3 0 0 0
1499540452514168024 1 5 19 68 4 0 -3 -1
1499540452566168069 1 -4 -4 -2 0 2 1 -2
1499540452617768049 -1 -1 2 -2 -8 -5 -3 -4
1499540452669009923 -3 0 2 36 0 -3 -3 -3
1499540452717463970 -1 -4 -3 5 0 -2 1 -1
1499540452768399953 -2 -2 -7 -15 -1 -1 1 0
1499540452818161010 1 7 -1 -6 6 5 4 3
1499540452869004011 -8 18 22 37 5 2 0 -1
1499540452920918941 -6 -1 -16 -42 -3 -2 -1 -3
1499540452972259998 1 -5 -8 -15 -9 -4 -4 -2
1499540453022703886 1 -3 -19 -43 1 -1 0 2
1499540453071733951 -5 -5 -18 -88 -16 -8 -5 -6
1499540453122499942 -2 -1 10 -3 -1 -1 0 -1
1499540453172100067 -3 4 19 28 9 5 0 3
1499540453221976995 -5 -6 -33 -30 -15 -8 -4 -3
1499540453273751974 -5 1 2 7 4 2 0 -1
1499540453326733112 -3 -10 -14 -89 -4 -3 1 -1
1499540453373934984 -7 4 15 47 4 0 -1 0
1499540453423353910 1 -12 -41 -79 -20 -6 -3 3
1499540453473505020 -3 7 38 100 14 2 1 -2
1499540453524775028 0 9 2 -8 12 6 2 1
1499540453577024936 -9 3 -15 -34 12 0 0 -1
1499540453624128103 -6 -5 -5 -50 -3 4 0 0
1499540453673423051 -3 2 11 -32 -4 2 -2 -1
1499540453725140094 2 -18 5 -51 -24 -33 -21 -13
1499540453792151927 -3 -37 31 -57 -10 5 -11 -8
1499540453824691057 -2 15 -40 -69 -19 9 4 3
1499540453877486944 12 11 2 71 -81 19 -4 -2
1499540453927983045 -3 -10 -2 47 19 -5 -1 -4
1499540453978559970 -4 7 4 18 -52 -61 -10 -4
1499540454028347015 -7 2 -9 9 10 37 15 5
1499540454089004039 -2 0 -5 -2 -25 -21 -9 -4
1499540454129023075 4 15 3 12 2 26 -7 -3
1499540454180032968 -4 15 3 12 2 26 -7 -3
1499540454230679988 -4 -12 6 -7 11 -4 0 -9
1499540454281862020 0 -15 -5 -29 2 24 4 3
1499540454330666065 0 -2 1 30 -9 -11 -17 3
1499540454390748023 -2 -13 -32 -1 -27 -50 -11 -10
1499540454430800914 -4 -6 -1 38 25 21 9 6
1499540454481208086 -1 -17 -12 -31 1 -6 -3 -2
1499540454531308889 -1 9 16 13 2 0 7 6
1499540454581125020 -1 -9 -11 -29 -9 0 5 -4
1499540454632322072 29 -11 4 4 -4 -9 8 -1
1499540454716151952 -10 -7 -4 8 6 8 -2 -5
1499540454733608007 -2 37 34 28 4 10 2 10
1499540454782110929 -9 -23 -5 24 5 4 3 -10
1499540454831882953 2 29 5 -28 -8 -4 -9 -12
1499540454884067058 -4 -8 -7 -27 -10 -4 4 -15
1499540454932187080 -3 -1 3 -6 -3 -4 13 -18
1499540455007167100 -3 -11 -18 -43 -12 -2 5 6
1499540455033206939 4 11 1 -19 -2 -13 -6 -30
1499540455082685947 1 56 56 21 -12 -40 -17 86
1499540455135838031 -4 -94 -45 -31 -2 1 -6 -47
1499540455184211015 9 10 10 5 -10 -11 5 -43
1499540455233658075 10 24 15 16 -6 -4 -12 46
1499540455283643960 -4 41 29 66 -10 0 -9 27
1499540455333297014 -4 -11 -24 19 -9 3 5 -16
1499540455384151935 -3 106 95 -12 10 20 17 -53
1499540455434060096 -5 61 -17 -104 -3 5 -17 76
1499540455483850955 -1 -24 -27 -36 7 -15 -4 13
1499540455534019947 8 -2 -11 1 -2 5 17 0
1499540455586843967 2 -7 -4 13 22 -3 4 -12
1499540455637274980 -5 -17 19 -25 -4 2 -3 15
1499540455687616109 18 -1 -4 0 -4 7 -3 -15
1499540455740024089 -12 0 -1 40 -14 -25 -13 10
1499540455787038087 3 9 4 -16 7 -15 -2 -8
1499540455839474916 8 -2 -7 6 -16 -8 -7 -3
1499540455888498067 0 -1 -1 -24 -7 -4 2 3
1499540455942904949 19 4 3 -13 1 5 3 5
1499540455989492893 7 0 1 -56 6 3 12 -1
1499540456041043996 -1 -4 -4 -32 -1 -6 -10 -6
1499540456091928005 10 -1 -4 -11 -13 -11 -14 0
1499540456141838073 0 6 7 -1 10 14 22 5
1499540456193155050 -10 1 5 -2 -6 -3 -1 -3
1499540456244586944 5 -2 1 -7 0 -4 -10 -29
1499540456293184041 -39 4 3 -3 2 2 4 12
1499540456342542886 -22 0 0 -15 -3 -7 -9 1
1499540456393780946 -40 -3 3 13 -3 -22 -4 2
1499540456443988084 35 -4 -4 1 -1 6 -2 3
1499540456494199991 35 -2 -7 -7 1 0 -2 0
1499540456544370889 30 -2 -4 3 4 -3 -5 -3
1499540456595057010 10 2 -2 6 -4 -5 -2 -2
1499540456645225048 -22 -4 -4 -3 -7 -8 -1 -2
1499540456697146892 13 -10 -3 10 2 -3 0 -2
1499540456746967077 11 -4 -5 -5 0 2 -2 2
1499540456797205924 80 -4 -4 -7 1 -5 -3 -2
1499540456850327014 -26 3 -1 -1 -3 -2 -4 -2
1499540456900325059 -30 -2 -3 -2 4 0 0 -2
1499540456948004007 -23 0 0 -3 -1 0 0 -2
1499540457000852108 8 1 0 0 1 -2 -2 -1
1499540457048809051 -19 -1 -2 -1 4 -2 -3 -1
1499540457100312948 -43 3 -1 0 -1 -1 -2 1
1499540457148379087 -44 -1 -1 -1 -2 0 -1 -1
1499540457201239109 -10 -1 -2 -1 0 -2 -1 -2
1499540457252928972 1 -1 -1 -1 -1 -2 -2 -2
1499540457301434993 -28 -4 -2 1 -1 0 -7 -3
1499540457351936101 -26 0 -2 -1 -2 -1 0 -3
1499540457403774976 -2 -2 -2 -1 -1 1 2 0
1499540457480998992 -27 -2 0 -1 -2 2 2 -1
1499540457502748012 -3 -2 3 6 -1 -3 -11 -1
1499540457552768945 -75 -1 -1 2 0 0 1 0
1499540457603449106 23 -2 -3 48 -8 3 3 0
1499540457654361009 -1 0 -1 -36 0 4 4 2
1499540457711544990 -30 -1 -3 -13 -1 -1 0 -3
1499540457800805091 22 0 1 -15 -1 3 -1 -1
1499540457802659034 27 -1 0 -2 -1 4 4 1
1499540457854743003 -15 0 -1 -6 -3 0 0 -2
1499540457905194044 7 -2 -1 -1 -2 3 -5 -1
1499540457955971956 17 -1 -2 2 -2 0 -2 -2
1499540458007772922 -70 -2 -5 -5 -2 -3 -3 -1
1499540458096853971 -19 -1 -3 -2 0 -4 -1 0
1499540458107249021 -6 -1 -1 -3 -1 -1 0 0
1499540458157358884 2 -1 -3 -5 0 1 0 0
1499540458208137989 -41 -1 -3 0 1 7 0 0
1499540458258526086 -3 -3 -4 3 0 -2 -2 -2
1499540458308329105 12 -1 0 0 -4 -6 -2 -1
1499540458384635925 -8 0 1 2 0 0 -2 -3
1499540458410267114 -8 -1 0 3 0 -1 -3 2
1499540458461574077 -12 -1 -1 -2 -2 -4 -1 0
1499540458511115074 15 2 1 6 12 -4 1 -1
1499540458560627937 -3 -10 -7 -8 -53 5 7 5
1499540458610553026 5 7 8 9 23 2 -1 -2
1499540458661304950 3 -4 -3 9 13 0 -25 -7
1499540458715291976 7 0 -2 -2 4 4 7 -5
1499540458760730028 -4 0 2 15 17 11 3 1
1499540458811562061 -1 -1 0 -8 6 -3 -6 -5
1499540458864295959 0 -2 -2 3 14 -14 8 1
1499540458912209987 -12 -4 -2 15 13 7 -6 -2
1499540458962510108 -6 -4 0 -8 1 4 -6 -2
1499540459018623113 0 -2 -3 -3 -6 -6 -4 2
1499540459064138889 3 -2 -2 -7 -11 -4 1 0
1499540459113676071 0 -2 -4 -17 -13 -16 -4 -4
1499540459164515972 2 0 0 -7 -7 2 1 -1
1499540459214579105 0 -2 0 -3 0 11 -18 -2
1499540459265297889 2 -3 -1 -2 -13 -8 -7 0
1499540459326430082 -15 -3 -2 -11 -37 28 33 0
1499540459365672111 -10 3 2 10 9 5 -12 1
1499540459417742967 -8 -4 -4 -49 -7 -20 1 -1
1499540459466511964 -5 -1 -4 5 18 -6 4 -2
1499540459516699075 1 0 -4 32 -4 2 -7 1
1499540459568135976 -2 -2 -1 -26 -21 -4 11 -3
1499540459619613885 5 0 -1 -17 -3 -6 -4 -3
1499540459668673038 -7 -2 -1 0 -1 -8 -2 -2
1499540459719034910 -6 0 -1 -1 7 4 4 0
1499540459773272991 -4 -1 -4 0 -2 6 1 -1
1499540459821095943 2 -3 1 6 -2 2 0 -2
1499540459871421098 0 -3 -3 6 3 8 -4 -3
1499540459940727949 -10 -2 -2 10 63 11 7 0
1499540459975024938 -4 -1 1 -1 -14 -4 -5 -3
1499540460021621942 2 -1 -1 -6 2 0 3 0
1499540460074145078 0 0 -2 -7 -11 4 -1 -2
1499540460124452114 3 0 -2 -1 -8 -5 -2 -2
1499540460173913002 -7 -1 -1 -3 -3 4 -2 1
1499540460250933885 -7 -3 -2 1 -2 -1 -2 -1
1499540460277036905 -3 -2 -4 0 -14 -2 -1 -2
1499540460328655958 3 0 -1 1 1 -1 -2 -2
1499540460379278898 0 -4 -1 -3 -5 1 -3 1
1499540460424680948 -3 -2 0 -3 -1 -4 -3 -3
1499540460477248907 -2 -5 -5 -2 -20 -3 1 -1
1499540460525458097 -10 -1 -1 0 6 0 -1 -1
1499540460577629089 4 2 -1 31 0 -1 -1 -2
1499540460628372907 5 2 0 -32 2 -2 -1 1
1499540460679855108 -10 -2 1 -6 0 0 -1 -2
1499540460728640079 0 -1 -1 -7 -2 -2 -1 -2
1499540460781037092 -4 -1 -2 1 7 2 -1 -2
1499540460858278989 -4 -1 -2 -5 -6 -4 -4 -1
1499540460881443977 -2 -1 -3 -4 -10 1 -1 -3
1499540460931951999 1 -1 -4 0 -6 -4 -2 -1
1499540460982501029 0 0 -3 -1 3 0 0 -1
1499540461032058000 -5 -1 -1 -3 -6 1 0 -2
1499540461083446025 0 -2 -2 -1 -7 3 1 1
1499540461141967058 2 -2 -2 1 -3 3 -1 0
1499540461185750007 6 -2 -1 -3 -8 3 -1 -2
1499540461274267911 1 -2 -1 -4 -6 -1 -2 -1
1499540461288640975 -4 -1 -1 -1 2 -2 -1 0
1499540461345957994 2 -2 0 2 1 -1 -1 -2
1499540461391253948 -1 1 0 -3 6 -1 0 -2
1499540461441716909 -1 -3 -3 0 -2 -1 -1 -1
1499540461490972995 -2 0 -3 2 -4 -7 -1 0
1499540461541418075 4 0 -2 -13 -21 -5 -4 0
1499540461590842962 3 -1 0 9 -2 -1 1 -2
1499540461641351938 2 -1 0 7 -3 -2 -4 -2
1499540461691289901 -3 -2 -1 -11 -4 -7 -1 0
1499540461759335041 3 -1 0 -2 11 1 -1 -2
1499540461791234016 1 0 -2 -2 -2 2 -1 0
1499540461842621088 5 1 -3 1 5 1 1 -3
1499540461895284891 0 -3 -3 -2 -4 -2 -1 -3
1499540461945244073 -13 -2 -2 -6 -8 -1 0 -1
1499540461993349075 -1 -1 0 0 -6 -2 0 -1
1499540462085962057 -12 1 -2 -2 1 -1 0 -1
1499540462095449924 3 -1 -1 -5 -4 -3 -1 -1
1499540462144170045 -2 -2 -2 -2 1 1 -1 -1
1499540462194890022 -1 -3 -3 2 13 0 -2 -3
1499540462244931936 1 -2 -1 4 2 -1 -1 -1
1499540462294830083 0 -13 -7 -2 -5 -2 -3 -4
1499540462345882892 -4 7 -1 -3 4 2 0 0
1499540462395821094 -7 17 3 -1 1 3 -2 0
1499540462446340084 -4 -14 -4 2 6 -2 -1 -3
1499540462497446060 5 14 6 0 -6 -1 -1 -2
1499540462547883033 -5 1 -4 -5 -18 -1 -1 -4
1499540462598726034 2 47 12 0 9 2 -1 1
1499540462647927045 -2 33 6 -2 0 -1 0 1
1499540462698785066 10 -18 -17 -5 -5 3 -3 -3
1499540462751954078 -4 -9 -5 6 -3 -7 -2 0
1499540462801590919 -5 36 16 0 -3 1 -1 2
1499540462850554943 -4 -31 -12 -6 -3 -5 -2 -4
1499540462902322053 0 -7 1 2 -4 -4 0 -2
1499540462950773954 -1 13 2 -9 -1 5 0 1
1499540463001810073 2 23 21 4 0 0 0 2
1499540463052190065 -2 -38 -20 -3 -4 -11 -3 -7
1499540463103156089 1 -1 -6 0 1 1 1 0
1499540463154016971 -5 0 -14 -1 -4 -5 -4 0
1499540463207669973 2 9 0 2 1 -2 0 -1
1499540463254046916 -8 12 17 5 1 2 1 0
1499540463308397054 1 -15 -2 -15 1 1 -2 0
1499540463359216928 14 3 -2 -1 0 -2 -1 -1
1499540463405953884 -4 3 -2 -1 0 -2 -1 -1
1499540463457288026 -4 -4 0 -3 -8 0 -1 -3
1499540463507035017 -2 4 0 -1 9 3 -1 2
1499540463558329105 -6 -1 1 13 19 2 -1 -4
1499540463611396074 4 -2 13 -4 4 -1 -2 -2
1499540463657659053 -4 2 -10 -4 -9 -1 0 0
1499540463709048986 -4 -1 10 -2 -12 -1 0 0
1499540463760418891 -7 5 -2 6 9 -1 -1 -3
1499540463810507059 -2 0 -5 0 8 0 -1 -1
1499540463862425088 -2 -4 -4 -1 -1 -4 -1 -4
1499540463923823118 1 5 3 1 -5 -2 -1 -1
1499540463962055921 0 2 -3 -11 -3 -2 -1 2
1499540464011533975 -1 -2 -3 1 -3 -2 -2 -4
1499540464062096118 21 11 -1 0 0 -4 -2 -2
1499540464114063024 -3 -35 -9 -7 -2 0 0 -3
1499540464163558959 -3 -18 -16 0 -1 -2 -2 -6
1499540464216742992 2 9 11 0 -1 -1 0 -2
1499540464264492988 -4 4 4 4 0 -1 -1 -2
1499540464315270900 10 -1 1 -11 0 -2 0 -2
1499540464369060039 -28 1 0 5 5 -2 -2 -1
1499540464417880058 5 1 5 31 14 3 -3 1
1499540464466931104 8 -2 -3 -8 -8 -3 -2 -1
1499540464536808013 -3 -14 -4 -9 1 1 -1 -4
1499540464567548990 -16 -14 -6 4 6 -1 -2 -4
1499540464618079900 -12 30 10 -3 9 5 2 4
1499540464670452117 5 -20 1 -3 0 -3 -1 -3
1499540464719014883 -2 -8 -11 -1 -4 0 -4 -3
1499540464770714998 -9 -8 -11 -1 -4 0 -4 -3
1499540464835081100 0 1 3 6 -8 -3 -1 1
1499540464872056007 2 8 -2 -4 0 -1 1 -2
1499540464923966884 -9 -2 0 0 -3 -2 -2 -2
1499540464973748922 -16 -2 -3 0 -1 0 -1 -1
1499540465023376941 -2 36 20 3 2 2 3 5
1499540465078473091 -18 11 2 0 -1 0 0 -1
1499540465138787984 5 -2 0 -1 -1 -2 -2 -1
1499540465176049947 9 8 4 1 1 0 0 -1
1499540465226058006 -5 -1 -1 -1 2 -1 -1 -1
1499540465277553081 -24 -10 -5 -2 -1 -1 -1 -1
1499540465328038930 -6 -2 -1 2 -1 -1 -2 0
1499540465378206014 6 -12 -4 0 -2 -1 -2 -1
1499540465464142084 -5 33 1 -1 -2 -2 0 -1
1499540465478082895 2 -5 0 -3 -1 -1 0 -2
1499540465528103113 16 6 0 0 0 -3 0 -9
1499540465578916072 -57 -8 -3 -1 3 -1 -1 -4
1499540465628998994 -1 -4 0 -2 -3 -2 -3 -29
1499540465681421995 -9 -1 0 -4 1 0 -1 -2
1499540465772150039 33 -2 -1 0 2 0 1 31
1499540465782152891 -3 -2 0 -3 -11 -3 -1 -5
1499540465834428071 17 -3 -2 -2 2 -2 -5 -7
1499540465884011983 -6 0 -1 -1 1 -3 -1 0
1499540465932271003 5 -2 -2 2 0 -2 0 -2
1499540465983447074 -5 -2 1 -2 -1 2 6 6
1499540466033806085 -2 -1 3 3 2 -3 10 -67
1499540466085623025 -4 -1 3 3 2 -3 10 -67
1499540466135658025 0 -3 -5 -3 0 -27 -23 -1
1499540466187520027 33 31 -1 -1 -6 -5 7 12
1499540466240989923 -7 38 -6 -5 -1 -7 8 22
1499540466289305925 -9 45 24 8 3 6 7 36
1499540466339988946 17 -37 -6 1 -4 -8 -15 -12
1499540466390960931 12 -1 5 -7 -7 -12 8 33
1499540466440445899 -11 -11 1 11 -1 -5 -4 23
1499540466492753028 -11 -12 -10 1 -6 5 15 59
1499540466541666984 8 -11 -8 -4 1 6 5 -3
1499540466591809988 -16 -3 3 -2 1 -2 -1 4
1499540466641459941 -7 3 0 1 0 1 0 1
1499540466692946910 -1 10 3 -2 -2 -1 -6 14
1499540466743470907 -14 8 8 16 2 0 -1 0
1499540466796436071 -3 12 14 40 4 3 -2 16
1499540466843852043 -3 -4 -8 0 -7 -6 -5 -6
1499540466895190000 -1 -6 -3 47 -4 -2 0 3
1499540466945138931 1 -7 -23 -61 -14 -2 -9 33
1499540466995126008 -1 -3 -1 -43 0 1 1 -11
1499540467045478105 17 -5 7 0 6 -4 0 -2
1499540467100018024 1 -8 5 18 0 -2 -4 4
1499540467146872997 -12 3 6 5 14 5 6 -29
1499540467198669910 17 20 8 7 5 4 12 18
1499540467247973918 10 -17 -14 -27 0 1 1 8
1499540467298661947 -19 2 1 38 15 3 8 0
1499540467348278999 1 -43 -1 2 -1 -4 -2 5
1499540467400238990 -1 -4 9 18 15 26 16 58
1499540467449649095 0 -5 0 23 6 37 29 59
1499540467501243114 4 0 1 -4 -20 -21 -3 -75
1499540467551086902 -8 13 0 19 -4 0 -25 -27
1499540467600642919 -5 17 19 0 8 4 20 70
1499540467654064893 5 -2 0 -7 1 -9 -8 15
1499540467706298112 -20 7 -5 -39 7 7 2 10
1499540467756860017 -4 -4 -5 -4 -12 -2 7 -1
1499540467807476997 -14 -11 -4 -13 -2 -5 -3 -15
1499540467858052968 0 5 -1 18 0 0 -1 -5
1499540467923512935 5 -7 4 -5 2 6 -1 -22
1499540467957947015 -4 -10 3 -8 -3 -4 -3 -29
1499540468009677886 -10 5 7 20 16 5 0 -7
1499540468060128927 -10 13 -3 10 -1 1 15 29
1499540468112091064 1 2 -10 10 -13 -9 -4 -10
1499540468160435914 -3 -8 0 -15 -12 -11 -7 5
1499540468212348937 2 -12 -3 -7 -3 1 -4 -35
1499540468263863086 -9 28 4 10 -2 -1 -22 -64
1499540468314356088 -9 -25 -12 0 -2 -4 -14 -33
1499540468365814924 5 -9 -6 -7 -1 3 10 -12
1499540468415155887 -9 -22 -11 -9 -7 -7 -15 19
1499540468464809894 -32 -2 -5 -1 -2 -3 1 45
1499540468529006958 6 -5 -11 -53 -7 -3 -2 1
1499540468566576957 2 21 8 40 3 2 2 -8
1499540468616329908 -4 8 2 26 3 -2 12 8
1499540468666868925 0 -6 -2 -50 -17 -7 -7 4
1499540468717408895 -2 3 0 6 4 -2 -2 5
1499540468768316030 -2 -8 0 35 4 -5 -8 -8
1499540468828815937 -5 -10 -4 2 0 2 2 -4
1499540468868345022 -2 -6 -1 -6 -1 -2 -1 -3
1499540468922956943 -3 4 4 4 -2 -1 0 1
1499540468969965934 8 4 5 -14 9 -1 0 -3
1499540469020796060 -5 -8 -2 3 1 -2 -2 -2
1499540469071155071 -1 7 -2 -8 -2 0 0 -4
1499540469137306928 0 -5 -5 -7 0 2 -2 0
1499540469173549890 -2 18 -11 -1 -1 -3 -3 -1
1499540469222724914 1 7 8 -7 -1 1 -1 2
1499540469274498939 1 -6 -5 -6 -2 -2 0 0
1499540469326543092 -1 0 0 2 0 -10 -1 -2
1499540469375698089 -4 15 6 -3 0 -7 -3 1
1499540469433862924 -11 -4 -8 -5 1 11 3 -4
1499540469476708889 0 -11 -6 -1 -8 -17 6 2
1499540469528234004 -4 12 2 0 -4 -1 -6 -2
1499540469590917110 -1 -9 4 4 2 16 1 -3
1499540469626952886 1 4 -8 2 7 2 1 -3
1499540469677805900 -1 4 4 3 -3 12 10 5
1499540469752536058 -2 -8 -6 -6 -11 -15 17 -9
1499540469779000043 -1 -5 -3 9 -2 -24 -62 -63
1499540469829936981 -4 -45 -19 -22 6 44 25 68
1499540469882575988 2 85 59 13 -23 3 -5 7
1499540469931873083 -1 -41 -24 0 15 -8 -14 -38
1499540469981333017 0 11 -6 1 13 -30 -10 -34
1499540470060585021 -5 -8 -4 -2 7 -10 -3 -14
1499540470082142114 0 4 8 10 9 4 0 -6
1499540470134599924 0 1 -5 3 -7 -10 9 -10
1499540470184469938 -2 12 6 6 4 4 -3 -6
1499540470240365028 1 -55 -18 0 -1 1 -1 -7
1499540470287480115 1 -3 -14 -6 -5 -7 -2 -5
1499540470337013959 -3 22 14 -3 2 4 1 0
1499540470387823104 1 0 9 2 0 -1 0 -2
1499540470437690973 0 -4 -6 -3 -7 -4 -1 -4
1499540470488769054 2 0 0 -15 -3 1 0 0
1499540470537960052 0 -9 -5 1 -6 -3 -3 -5
1499540470589400053 1 1 -1 13 -1 -2 -1 -1
1499540470641252994 -3 -3 -2 -13 -1 -2 -5 4
1499540470690901994 -2 1 8 6 0 0 4 1
1499540470742043972 1 -4 -12 -61 -6 -4 0 -4
1499540470791897058 -3 1 9 -19 3 2 -1 -2
1499540470842133998 -2 -5 -23 -42 -8 -3 -4 1
1499540470892748117 2 -2 6 38 3 -1 -3 -14
1499540470943691968 0 -4 6 47 -1 -4 -3 -2
1499540470994060993 -3 -2 -7 -50 -5 -2 -10 -4
1499540471044774055 -3 -2 -7 10 -4 0 -1 -5
1499540471094655990 0 3 -3 -59 5 3 2 -1
1499540471145266056 -1 -3 -8 -20 -2 -2 -2 3
1499540471194690942 0 5 3 -4 1 4 -1 0
1499540471245260000 -2 5 5 40 4 4 -2 0
1499540471296757936 -3 1 12 -2 5 -2 0 1
1499540471347248077 -2 0 -1 -9 -9 -4 -2 -3
1499540471396804094 -1 -5 -1 -16 -2 -1 0 -1
1499540471456739902 -3 0 -7 -11 -1 -1 0 -2
1499540471497070074 1 6 5 -3 8 2 0 0
1499540471547775030 0 -3 9 26 3 -1 -1 2
1499540471602058887 -5 -8 -11 8 -2 -3 -1 -2
1499540471648133039 -3 0 5 -4 4 -1 -2 -6
1499540471698765039 -1 -18 -5 -21 -7 -5 -4 -1
1499540471762216091 13 -13 -17 17 5 4 0 -8
1499540471800815105 -1 28 10 13 3 0 1 4
1499540471850614070 7 -16 -14 -6 -4 -10 -6 -8
1499540471901292085 -3 8 9 -5 -1 -2 3 2
1499540471950957059 0 -18 -17 3 -6 0 2 -5
1499540472001775979 -3 -8 1 -4 -3 -10 -8 -6
1499540472052247047 -3 -6 -14 -66 7 0 -4 -3
1499540472104676008 0 -1 3 -6 5 6 4 0
1499540472154772996 -1 -4 -1 38 5 -5 1 -3
1499540472206465005 -7 -4 -10 9 -3 -4 -2 0
1499540472253998041 2 -1 -5 -4 -6 -6 -5 -5
1499540472306231975 -9 -2 2 0 -1 3 1 1
1499540472353980064 -1 -2 2 0 -1 3 1 1
1499540472405437946 -1 -7 -5 -17 -4 -16 -4 -3
1499540472454240083 -5 3 3 12 1 4 2 1
1499540472510332107 2 5 4 -6 -3 -4 -1 3
1499540472554970979 -1 -8 -15 1 -2 -7 -3 -3
1499540472606796979 -5 3 12 5 7 -2 -1 -1
1499540472654732942 -1 2 8 2 -3 -3 0 -1
1499540472705688953 0 -7 -2 2 -2 3 1 0
1499540472756218910 -1 -1 0 -40 -6 -3 -2 -5
1499540472830141067 2 -6 -5 -29 -6 1 -1 -1
1499540472856060981 -1 -3 -1 -18 -3 -1 1 -2
1499540472907095909 -3 6 12 19 5 3 3 1
1499540472957544088 -4 -1 -3 15 0 0 -1 -3
1499540473007543087 -4 4 4 30 5 -9 -6 -2
1499540473057988882 -3 0 1 -7 -2 -4 -3 -1
1499540473134968996 6 -2 -7 -53 -7 -3 0 0
1499540473158246040 0 -1 5 10 0 1 3 3
1499540473208156108 -2 0 -3 24 1 0 -1 4
1499540473259432077 1 6 4 -1 4 2 -1 -2
1499540473309267044 0 -1 3 -11 0 -7 1 9
1499540473361828088 4 -5 -15 -33 -16 -6 -1 11
1499540473436551094 25 2 0 16 9 -1 0 -5
1499540473464073896 -25 0 -1 16 9 15 16 4
1499540473513865947 3 -12 -4 -3 -1 10 -1 4
1499540473561719894 41 3 -4 -1 -5 -6 -7 -1
1499540473611469984 82 0 3 9 3 0 1 -3
1499540473661550045 -19 12 16 9 0 -2 13 49
1499540473711776018 3 -8 -8 11 -2 0 -1 -7
1499540473762985944 -7 -3 -1 -4 -2 -3 -7 -7
1499540473813090085 -72 0 2 4 -1 -1 2 0
1499540473863830089 54 -4 -3 8 -5 -3 -3 -11
1499540473914097070 -28 -1 -1 11 6 1 -2 -3
1499540473964967966 -7 -2 -4 -11 -6 5 1 0
1499540474015767097 -5 2 3 3 -4 -2 -2 -1
1499540474066868066 -11 -7 -8 -15 -5 -8 -4 -4
1499540474117567062 -27 -2 -2 30 7 2 -1 -2
1499540474167768955 -14 2 1 13 -2 0 -12 -17
1499540474218051910 9 -2 -4 1 1 0 0 -1
1499540474269489049 -76 -2 -3 8 -1 -5 -1 -1
1499540474319427013 3 2 1 4 2 4 -1 -1
1499540474370166063 31 -2 6 3 1 -1 -2 -4
1499540474420185089 -13 2 2 -6 0 -4 0 -1
1499540474471221923 11 2 7 9 -16 -3 -2 1
1499540474521318912 2 5 6 12 5 0 -1 2
1499540474573057889 1 -4 -1 -7 -2 -1 -3 -2
1499540474622554063 -23 3 0 1 0 -1 -3 -9
1499540474673197984 -5 1 -3 -3 0 -1 -1 2
1499540474721860885 4 -1 -11 -69 -18 -2 -1 1
1499540474773063898 2 0 5 13 5 -2 1 0
1499540474822655916 -4 1 6 -8 -4 1 -2 -1
1499540474875755071 -2 -4 -2 13 -1 -5 -2 2
1499540474923135042 3 -6 -8 -13 0 1 -3 -3
1499540474975806951 6 3 11 12 1 1 2 -7
1499540475025445938 0 1 1 29 4 0 1 -1
1499540475076936960 1 1 -4 -6 -5 -1 0 3
1499540475125093936 4 -1 -2 -7 -2 -3 0 5
1499540475175151109 9 -1 6 22 3 -2 -3 -15
1499540475227335929 -6 0 8 7 0 1 -2 8
1499540475293667078 -1 -3 -6 -18 -2 1 3 14
1499540475329171895 -3 -2 1 2 0 0 -6 19
1499540475381584882 4 5 1 -2 -2 2 -4 -26
1499540475429037094 -43 6 -4 -3 -4 -4 2 -12
1499540475479304075 -7 3 -1 3 4 4 14 98
1499540475531461954 2 -12 -6 -3 -3 1 2 17
1499540475581681966 3 -13 -5 -2 -6 -7 -17 -84
1499540475631335020 -1 -8 0 -5 -4 -5 -15 -96
1499540475681605100 2 5 6 7 1 -4 -5 -4
1499540475731107950 -11 3 -2 8 1 9 7 38
1499540475781145095 2 6 8 13 -3 -2 -18 -12
1499540475831376075 1 -5 0 -2 3 3 0 -42
1499540475920981884 -22 -32 -13 7 2 0 -5 25
1499540475932133913 -7 12 1 -30 -4 5 11 -63
1499540475982964992 -17 11 4 6 1 4 10 62
1499540476033499956 59 -3 -7 -11 -3 2 14 124
1499540476083816051 -49 12 4 -2 0 3 3 -37
1499540476135567903 -17 8 3 9 0 1 0 47
1499540476200727939 -30 2 6 -1 2 4 4 -5
1499540476235646009 3 3 7 -8 -2 0 0 -112
1499540476286304950 -4 -3 -3 6 3 2 5 53
1499540476337333917 20 10 4 7 -2 -2 -9 -91
1499540476389028072 -6 -1 4 21 2 6 8 -25
1499540476439116001 -16 -5 -6 13 0 -1 6 116
1499540476525755882 35 10 3 -35 -5 5 9 31
1499540476540436983 -34 4 4 12 -1 -3 -4 2
1499540476590687036 36 23 16 22 6 -1 -6 -64
1499540476641313076 6 0 -6 4 -1 3 8 -5
1499540476690932989 -34 11 5 11 4 2 1 46
1499540476741235017 -19 -9 -3 18 2 -3 -10 -17
1499540476807248115 -22 -8 -7 10 -1 -3 -1 -22
1499540476842217922 -9 -14 0 22 -1 -2 -10 -19
1499540476894244909 -27 13 6 0 2 1 14 76
1499540476943166017 -24 -2 -3 -6 -4 -8 -21 -46
1499540476995464086 11 -14 -7 7 -2 0 -3 -26
1499540477043767929 3 8 16 25 6 3 -15 31
1499540477094568014 -18 -1 -7 -23 -4 -1 -12 26
1499540477143078088 6 -11 -9 -10 -1 -2 -3 28
1499540477193928003 4 6 3 10 3 -1 -2 -8
1499540477244298934 -15 2 8 44 4 3 2 -15
1499540477294796943 -1 3 5 0 0 -1 4 19
1499540477345235109 1 6 -3 -12 -4 1 0 -1
1499540477395381927 -6 9 8 -9 2 4 3 20
1499540477445868968 -9 -3 -7 -2 -4 -5 -6 -38
1499540477497528076 3 -2 -8 -19 -2 1 5 14
1499540477548397064 -2 -2 -11 -97 -6 -1 -2 2
1499540477597987890 -6 -4 4 28 8 0 -2 6
1499540477648783922 0 -5 0 37 3 -1 -1 -18
1499540477699273109 -7 -5 -5 -19 -5 -9 -11 -8
1499540477749313116 -7 0 3 12 -3 -2 -3 -11
1499540477799237966 3 -6 -3 -35 -5 -1 -6 -20
1499540477851171016 0 -3 -6 4 1 0 -4 -22
1499540477900722026 7 -4 3 21 1 0 -1 -10
1499540477952399969 12 -7 -1 10 -3 0 0 10
1499540478001168012 10 6 4 15 1 -1 -2 12
1499540478055608034 16 -7 -13 -6 -3 -1 -2 0
1499540478102890968 8 -6 -3 8 -5 -5 -9 -5
1499540478154408931 -2 -8 -7 -6 1 -2 -8 -36
1499540478204343080 2 -2 0 5 -3 -2 0 13
1499540478267082929 -1 -3 -1 6 -4 -1 -8 -16
1499540478305680990 -2 -12 -15 -75 -10 -4 -2 0
1499540478355530977 -1 -5 -9 3 -1 0 0 -33
1499540478405889034 -2 -7 -7 12 1 -2 5 20
1499540478455893993 -1 -3 -5 5 -2 -1 -4 32
1499540478506520032 -1 0 6 11 0 -1 -6 -57
1499540478556670904 -1 -11 -5 -19 -1 0 2 3
1499540478607084989 -4 2 -2 9 -2 -2 1 -3
1499540478686475038 -3 -5 -3 3 -2 -3 -6 -37
1499540478707725048 0 -2 -3 -1 -1 -1 -5 -16
1499540478758697986 -1 -9 -6 -27 -6 -3 0 -59
1499540478811137914 -3 17 3 -8 1 3 9 -55
1499540478864357948 0 -2 -2 -34 -4 -3 4 53
1499540478910697937 -4 -10 -6 14 -1 -2 -9 32
1499540478965265035 -3 3 5 -2 0 4 11 73
1499540479014811038 -1 5 1 4 3 3 10 33
1499540479060786962 -1 7 4 25 -2 -2 -7 22
1499540479111650943 0 -4 -2 -4 -1 -1 1 3
1499540479162127971 -1 -3 3 9 -2 1 5 26
1499540479212362051 0 -2 -7 -6 -1 -3 -6 49
1499540479280730962 0 -5 -5 -8 -4 -1 2 12
1499540479313656091 -2 3 5 29 4 -1 -2 26
1499540479363957881 -2 -1 -1 -9 -2 -1 1 35
1499540479418098926 0 -5 -4 -32 -5 0 3 5
1499540479464889049 -3 -1 1 -13 1 -1 -5 -49
1499540479515851020 0 -3 -3 -1 -1 1 7 117
1499540479583858013 -2 12 5 2 2 0 3 23
1499540479616549968 -3 -10 -5 -5 -1 -1 6 -50
1499540479666341066 0 6 3 10 3 3 4 37
1499540479716996908 -2 -1 1 9 1 0 -1 -5
1499540479769882917 -4 -17 -13 0 -5 -6 -13 18
1499540479821003913 -1 4 -1 20 0 3 13 75
1499540479885693073 1 0 -2 -19 -3 -1 -1 -112
1499540479921689987 2 2 4 -11 3 1 25 16
1499540479969016075 1 -16 -6 -4 -6 -12 -20 -39
1499540480022038936 1 2 -1 4 5 5 21 91
1499540480070601940 -1 -1 -12 -78 -9 -4 -4 -7
1499540480126070022 -1 -4 -1 5 -1 4 15 70
1499540480222862005 -3 7 3 7 1 3 3 41
1499540480224482059 -1 2 -1 1 0 1 1 -43
1499540480272423982 -2 -22 -4 14 -7 -16 -49 -124
1499540480322901010 -2 10 4 -4 -1 1 7 22
1499540480370820999 0 -3 -7 18 2 -3 -16 -97
1499540480421782970 0 -6 -7 -17 -8 -2 11 79
1499540480471750020 -1 -3 -5 11 -5 -3 8 77
1499540480524593114 3 -5 3 17 0 1 4 17
1499540480571999073 -3 20 10 25 1 -4 -7 2
1499540480624093055 -1 -11 -3 5 -2 0 9 11
1499540480674043893 0 -1 0 -7 2 2 3 37
1499540480724128007 0 -4 4 32 1 2 -5 47
1499540480775470972 -1 -25 -8 -18 -6 -9 -28 36
1499540480843169927 -1 -13 -7 0 1 -2 0 -16
1499540480876800060 -2 -11 -4 14 0 2 6 31
1499540480927011966 -1 -34 -11 4 -7 -7 -21 -63
1499540480977617979 -1 -3 -7 -3 -2 2 18 35
1499540481027385950 5 5 2 47 2 0 -2 8
1499540481078444004 4 0 -6 2 -5 -2 -1 8
1499540481129149913 7 0 -6 2 -5 -2 -1 8
1499540481180381059 -2 -2 -11 -15 -1 -1 1 6
1499540481231973886 -5 -3 4 10 -6 -5 -3 -7
1499540481284246921 0 -2 1 -3 -3 -2 -1 -4
1499540481332752943 0 0 -8 -30 -1 -1 -2 2
1499540481384540081 -5 10 3 3 0 -1 -2 2
1499540481437489986 2 -12 -38 -109 -29 -9 -3 -4
1499540481484148025 1 -3 -7 4 1 0 -1 -13
1499540481536529064 1 -3 2 10 2 -3 -16 -59
1499540481585306882 -1 -6 -1 13 1 0 6 25
1499540481635741949 -3 -5 -5 7 2 0 2 7
1499540481686178922 -6 -1 0 22 -1 -1 0 -2
1499540481738038063 -4 7 16 33 3 -1 1 14
1499540481786655902 2 2 -11 26 -4 -4 -7 1
1499540481837508916 2 -1 18 -27 7 5 4 7
1499540481887310028 10 1 3 -4 2 0 1 -2
1499540481938211917 -4 0 -1 -31 -8 -1 -2 -1
1499540481987771034 0 -9 -4 -18 -4 -3 -4 1
1499540482038163900 0 -3 -2 4 3 -1 -2 4
1499540482090295076 -2 -2 3 11 -3 -5 -3 -3
1499540482140016078 1 -2 3 11 -3 -5 -3 -3
1499540482190854072 0 4 1 -1 -2 0 0 -3
1499540482242403030 7 -14 -5 -16 -3 -2 0 0
1499540482292248010 0 -2 -4 2 -2 -3 1 0
1499540482341815948 -4 -3 -24 -87 -5 -2 0 4
1499540482392334938 -3 7 14 -9 4 1 2 3
1499540482443402051 1 7 3 -25 -4 -1 -1 2
1499540482494591951 0 -22 -48 -26 -65 -22 -9 -9
1499540482544235944 4 3 13 53 10 1 -2 -1
1499540482593812942 -7 -1 7 36 -14 -1 2 1
1499540482650753974 7 15 3 38 14 -1 3 2
1499540482694972991 0 17 0 38 20 40 4 5
1499540482745136022 3 -18 -18 -79 -58 -22 1 -5
1499540482796483993 -1 11 11 27 -16 -21 -7 0
1499540482846227884 1 -13 -1 5 23 21 2 -9
1499540482898358106 -6 -15 -6 -1 11 -4 10 0
1499540482960721969 8 22 7 -13 -11 -10 -23 -4
1499540483000845909 0 -4 25 76 19 -3 -32 -4
1499540483047255992 2 0 7 19 8 5 -21 8
1499540483098475933 -3 -13 -9 0 -1 -12 -11 6
1499540483149511098 -2 3 -9 -3 -6 0 -22 -28
1499540483202250003 20 -21 -8 -3 -1 -11 -26 0
1499540483261049032 46 -8 -8 19 -7 13 16 -3
1499540483301543951 -5 -10 -15 3 6 23 5 29
1499540483349803924 -2 -43 -21 -5 -4 5 -25 -35
1499540483400052070 36 124 114 83 -14 -40 -44 42
1499540483451956033 -25 18 6 -14 6 -19 23 14
1499540483503525018 2 -18 -31 -125 -12 7 20 -36
1499540483585481882 28 -10 -9 -106 14 -2 -21 -5
1499540483604017019 -16 -2 21 101 4 -10 28 -33
1499540483654381990 67 13 1 10 -3 3 25 -90
1499540483705007076 -12 -23 -28 50 -5 -107 -50 -7
1499540483754574060 -27 7 8 -26 -9 30 8 -12
1499540483805619955 -26 8 -13 -90 -16 10 5 13
1499540483884476900 28 14 1 3 2 7 -6 11
1499540483906963109 -7 25 12 42 6 -15 7 12
1499540483959125995 -1 -17 -7 -23 -3 33 7 -15
1499540484012145996 -2 15 12 34 2 1 8 -22
1499540484057907104 6 -12 -9 -29 -10 -6 17 22
1499540484112051010 1 -21 -9 -5 -4 6 17 13
1499540484160325050 0 -3 -12 -73 -6 -6 -30 25
1499540484235589981 -3 9 11 39 6 -2 -4 -17
1499540484262381076 -1 -11 4 6 4 3 -1 0
1499540484313011884 -5 7 12 14 -3 -1 -5 -12
1499540484365396022 0 -6 -15 -58 -31 -9 0 -3
1499540484413403987 -3 -9 -7 -11 -6 2 -2 -1
1499540484464036941 2 -21 -11 4 1 2 -1 -3
1499540484518346071 -1 7 2 -4 -1 0 -1 -3
1499540484564498901 -3 2 5 13 -14 3 0 -5
1499540484615293025 0 -3 2 23 -8 0 0 2
1499540484665669918 3 9 10 29 1 -24 -9 -7
1499540484716913938 -5 -20 -26 -21 -5 3 -2 -13
1499540484767388105 0 -10 -5 -31 -1 6 4 4
1499540484818586111 -2 -4 -6 -14 -4 -2 0 35
1499540484868596076 -4 3 14 8 1 2 -2 0
1499540484921077966 -1 5 8 4 2 1 -3 -5
1499540484971065998 3 -1 1 9 -2 0 0 -4
1499540485021768093 -1 -1 -13 -78 -4 1 -2 -3
1499540485071461915 -3 2 -13 -52 -8 -2 0 3
1499540485149435043 -3 4 -11 -23 0 -1 -1 -1
1499540485171847105 -3 -2 -7 -46 -6 0 -2 -5
1499540485250813961 -7 -4 2 4 -22 -2 0 2
1499540485274348974 -4 -1 6 17 -1 -3 5 -4
1499540485326709032 -14 -5 3 -6 0 -2 -3 -3
1499540485377881050 -5 -4 -3 3 23 2 0 2
1499540485427608013 2 -11 -6 -32 -3 0 -2 -5
1499540485478003978 -4 3 6 24 0 1 1 2
1499540485527465105 -2 -4 -3 -18 -8 -3 -2 0
1499540485577056884 -3 5 -3 -16 -1 -4 -2 -4
1499540485628369092 1 -9 -13 -32 -23 -12 -2 -6
1499540485679344892 -4 0 4 13 -4 1 -1 -1
1499540485730657100 -1 -8 -1 23 13 -1 -5 -2
1499540485781016111 -6 -1 -23 0 -4 -1 -2 -3
1499540485831401109 -3 5 2 -10 1 0 -2 -1
1499540485882893085 -2 -4 3 -2 -9 -8 -2 -2
1499540485931600093 4 -5 -4 -7 -1 -2 -2 -1
1499540485983109951 -3 0 -2 -2 -10 4 3 -3
1499540486038038015 1 -2 -2 29 -18 2 1 -2
1499540486084186077 -10 -1 0 5 -2 -5 -4 -3
1499540486137284994 7 -2 -1 5 9 -26 1 6
1499540486184958934 5 0 5 -9 -3 6 3 -3
1499540486235366106 -12 -3 -15 -10 5 -4 3 3
1499540486285343885 5 -6 -7 11 -6 -7 -5 -5
1499540486334410905 -9 -4 3 -16 3 3 4 -1
1499540486388005018 3 -3 2 50 2 -1 -3 -4
1499540486436996936 -6 3 8 -5 0 1 -1 1
1499540486487154006 -1 -2 2 16 -4 -10 -5 -4
1499540486538172960 0 2 -2 -8 10 -2 1 3
1499540486587961912 -5 -2 -2 1 -26 -8 -3 -3
1499540486650543928 1 -8 -15 -23 -94 -28 -12 -7
1499540486690804004 -2 -3 0 -14 7 3 -1 -2
1499540486740639925 -1 -3 -1 1 16 -1 -2 -5
1499540486791452884 0 0 -10 -18 -2 -2 0 0
1499540486841813087 0 2 6 19 17 -4 0 -3
1499540486892040967 0 3 11 17 41 6 5 4
1499540486949348926 -6 0 -5 -2 24 5 -45 -9
1499540486994175910 -4 -1 -7 -6 -15 -8 -3 -2
1499540487043298006 2 -1 -7 -6 -15 -8 -3 -2
1499540487094317913 -2 -5 -9 -19 3 -4 -3 -2
1499540487144299030 -6 2 10 24 8 7 1 0
1499540487195707082 -2 -1 -2 -8 5 -5 -5 -4
1499540487255188941 -2 -1 -8 -23 49 2 4 0
1499540487296772003 -1 -7 -5 -22 -89 -26 -10 -8
1499540487347716093 3 3 6 12 -51 14 18 3
1499540487398288965 3 -1 0 -3 11 7 8 0
1499540487448261022 -1 -1 -1 -14 1 0 4 0
1499540487501645088 -3 -1 -1 -14 1 0 4 0
1499540487615147113 -1 -2 -3 19 1 2 4 -1
1499540487615457057 -6 -2 4 30 31 7 1 -1
1499540487652196884 -2 1 0 15 43 -7 0 1
1499540487701575040 1 -2 -6 10 -6 2 2 1
1499540487753679990 -2 -3 5 -16 -14 1 1 -2
1499540487805030107 3 -7 -10 -16 -2 -3 -3 -5
1499540487927552938 -1 -3 4 7 -26 -1 -4 -3
1499540487927706956 1 1 0 0 9 -7 -3 3
1499540487957854986 0 -2 -13 -31 -5 -2 1 2
1499540488008163928 -6 2 -3 15 4 0 -1 1
1499540488058221101 -1 -3 -7 9 4 3 -1 0
1499540488111406087 -1 -3 0 -5 -8 -10 -7 -7
1499540488268685102 0 -1 3 3 -12 -6 -5 -2
1499540488271606922 -1 -1 1 -4 10 -2 2 -2
1499540488271645069 0 -5 -7 0 11 4 -1 -4
1499540488317444086 0 11 14 5 -1 1 -2 4
1499540488367320060 -1 -7 -8 -33 -75 -12 -6 -3
1499540488418232917 -2 0 -2 -12 1 -1 -2 -2
1499540488553097963 0 0 -5 4 -2 1 1 1
1499540488555413961 -3 -6 -11 -25 0 0 -2 0
1499540488570956945 -1 -2 3 -10 1 2 -3 -2
1499540488621259927 -2 -5 -2 6 -5 -3 -3 -2
1499540488671200990 1 0 -3 -31 0 -1 -1 1
1499540488721811056 0 -4 -2 4 -6 -4 -1 -1
1499540488826595067 -1 2 1 11 12 -3 1 1
1499540488828185081 0 3 4 27 -8 2 -1 2
1499540488877090930 0 -2 2 3 -11 -4 -2 -8
1499540488928021907 -4 -4 -1 -12 -4 2 -1 -4
1499540488978992938 1 -3 0 -9 2 -2 -4 -2
1499540489030023097 -2 0 -2 -7 -9 -1 -1 0
1499540489128662109 3 -2 -3 -21 20 1 0 -1
1499540489130774021 3 -2 -4 -10 -7 -12 -3 -5
1499540489182145118 -10 1 -3 -30 -11 6 0 -1
1499540489236064910 5 -1 1 10 2 3 0 0
1499540489283811092 -3 3 5 5 -6 3 -2 -2
1499540489333455085 4 -4 0 10 -13 -6 -5 -3
1499540489384025096 -5 -1 -7 9 -13 0 1 -2
1499540489433912038 2 -3 -3 -15 -19 0 0 3
1499540489483421087 -4 -1 -4 -14 -4 -3 -1 -2
1499540489537801980 -1 0 1 2 6 -1 -3 -2
1499540489586093902 9 -4 3 22 4 -2 -2 -5
1499540489635132074 3 -1 -2 2 9 -4 -5 -1
1499540489685352087 -1 0 1 12 -3 1 1 -1
1499540489737715005 25 -1 -3 7 7 3 0 1
1499540489788022041 -2 -5 -6 6 -4 -2 -3 -2
1499540489839238882 2 -6 -28 4 -6 -5 1 0
1499540489889058113 -6 -9 1 3 -2 1 -4 -5
1499540489940246105 3 -3 1 -7 4 2 3 1
1499540489991204977 9 2 6 6 -3 4 0 -3
1499540490041912078 -8 3 5 6 7 2 -2 -3
1499540490092155933 24 -2 0 -6 -7 -5 2 7
1499540490142404079 -4 -3 -4 -26 -3 -1 -2 -1
1499540490194165945 -6 5 7 0 -4 2 3 8
1499540490244493961 0 0 1 26 5 1 -2 1
1499540490296202898 -3 -1 -2 6 -2 -4 -2 -5
1499540490367472887 0 0 2 8 2 -1 0 1
1499540490395504951 -2 4 11 7 4 -1 1 3
1499540490447581052 10 2 3 -12 4 2 1 1
1499540490496294021 1 -2 5 10 1 -1 -3 -2
1499540490547462940 -7 4 11 1 0 -1 0 0
1499540490597042083 -2 0 -7 2 -4 -4 -2 1
1499540490647697925 -2 8 11 7 3 0 -1 -3
1499540490700017929 -8 -9 -11 5 -2 -4 -3 -1
1499540490749200105 4 -4 -5 12 -3 -3 2 -2
1499540490800966024 14 0 2 1 0 0 -1 4
1499540490849229097 -15 2 -8 2 1 -3 1 8
1499540490899960041 9 1 -7 16 -2 -2 -4 -3
1499540490956315994 -10 0 -15 -6 -2 -2 1 -3
1499540491000082015 -8 0 -2 -12 -6 -3 -2 1
1499540491051707983 0 5 0 -8 3 0 -3 -7
1499540491100925922 1 -8 -9 2 -2 -2 0 -4
1499540491154051065 -9 -9 -6 -10 -1 -3 -9 -3
1499540491202286958 3 2 1 3 0 -1 -5 3
1499540491251045942 -15 -5 0 -1 2 3 6 -1
1499540491303596973 -4 -1 2 1 -3 -1 2 1
1499540491353745937 -1 0 3 7 3 -1 -1 -40
1499540491403528928 2 -2 9 10 0 3 4 14
1499540491453835964 -4 -6 -16 -23 -3 -3 -7 3
1499540491504467010 1 -2 3 0 -3 -1 -5 3
1499540491557096958 5 1 3 -1 1 -1 -1 -6
1499540491605341911 3 1 -3 -9 -1 0 -3 -3
1499540491655944108 -2 7 11 8 2 -1 1 10
1499540491706031084 -1 -6 -2 1 -6 -4 -4 1
1499540491756175994 -3 0 -4 -1 0 -2 1 5
1499540491806898117 1 -5 -3 3 0 0 -1 1
1499540491893745899 -3 -5 -17 2 -3 -3 -3 -2
1499540491907789945 -3 -3 2 8 -1 -1 2 2
1499540491956665039 -1 2 3 -6 0 -1 -2 -1
1499540492008409023 -1 0 3 -3 -2 -1 0 8
1499540492057208061 -1 -3 -5 -1 1 0 -2 -16
1499540492109534025 -2 6 18 1 0 0 0 47
1499540492178044080 7 4 12 16 -2 -1 -1 0
1499540492207969903 -6 -5 -11 -6 -9 -4 -4 -13
1499540492258169889 1 -5 -1 7 0 1 4 17
1499540492309302091 -23 -3 -7 7 3 -1 -3 -10
1499540492358774900 -1 0 -2 -18 0 -1 0 -13
1499540492409048080 -2 -3 -1 4 -2 0 0 5
1499540492474595069 7 11 -8 -1 -3 -2 -3 -3
1499540492510113954 -8 7 4 -3 0 0 -1 -1
1499540492560456037 0 -4 -3 -25 -10 -7 -10 -12
1499540492613492965 1 1 3 11 5 2 4 6
1499540492664434909 -1 4 -1 5 2 1 0 -6
1499540492713709115 -1 -6 -2 -6 -3 -1 2 -1
1499540492762640953 0 0 1 3 -2 -2 3 4
1499540492815288066 -1 -3 -2 -1 -2 -1 -1 -4
1499540492864717960 -3 5 12 -9 -3 -1 -3 -3
1499540492913851976 -14 9 -1 17 1 0 -1 -21
1499540492965471029 -1 -9 -10 -7 -3 -3 -6 4
1499540493014245033 7 2 -20 -1 2 1 -3 -6
1499540493064743041 3 -22 -14 9 -2 -4 -2 9
1499540493115262031 0 11 23 -7 -3 -2 -1 -23
1499540493170456886 -11 8 22 7 -1 -4 -4 -44
1499540493214802980 -2 31 68 -17 2 -6 4 -34
1499540493265631914 0 0 72 28 8 9 3 5
1499540493315711975 -6 7 -57 3 1 1 2 52
1499540493366168975 1 17 63 2 1 0 -6 -27
1499540493428056955 0 15 -39 -7 -1 6 5 28
1499540493465737104 -3 0 -54 -20 -2 3 3 0
1499540493517565965 -2 1 -27 5 2 -1 2 24
1499540493566171884 -2 49 92 2 0 4 4 13
1499540493619469881 0 -33 -55 -1 -7 -2 -4 -47
1499540493667761087 0 46 37 2 1 -7 2 19
1499540493723762989 -4 27 8 -8 3 9 8 -14
1499540493768579006 -3 -3 -10 20 7 5 7 19
1499540493821319103 -3 11 7 2 2 -2 -2 18
1499540493870213985 -4 -29 -58 0 -6 -7 -11 -19
1499540493920605897 -4 8 -8 12 -1 1 2 -2
1499540493971267938 1 7 16 1 1 1 2 28
1499540494046104907 2 0 11 -3 -4 -9 7 48
1499540494073220968 -1 2 19 28 -1 -7 -7 -4
1499540494123884916 -7 -1 16 0 -1 4 2 1
1499540494174921035 1 21 4 -11 0 -1 -6 -33
1499540494225053071 -3 -31 -68 -2 -1 -3 -4 -14
1499540494274528980 -3 -29 -11 -12 -7 -1 -1 17
1499540494325002908 -8 56 -18 13 2 9 -5 -24
1499540494376491069 -18 -77 -34 -2 -3 1 -5 2
1499540494427220106 2 -11 -11 18 -6 -8 -4 -19
1499540494479377031 -5 5 24 -3 -3 -2 0 7
1499540494526968002 -5 -77 -38 -24 -5 -3 0 -41
1499540494577059984 6 -6 -7 -14 -2 1 8 0
1499540494630848884 6 88 87 15 9 -2 6 18
1499540494676723003 5 -39 -52 -16 -9 -5 -12 17
1499540494727116107 -12 -116 -53 -7 -10 -9 -4 -8
1499540494778369903 0 -48 -52 -19 -5 2 0 8
1499540494828560113 5 -8 -18 -3 -1 1 -4 -19
1499540494880300045 -5 -64 -16 -16 -12 -3 -2 1
1499540494938683032 -1 -55 -11 -6 -2 2 0 -18
1499540494983323097 8 -22 -11 6 -1 -2 -4 20
1499540495101505041 0 20 -3 23 1 -1 1 7
1499540495102130889 2 33 32 0 1 3 -1 13
1499540495161098957 -10 -95 -45 -15 -7 0 6 83
1499540495185233116 -3 -85 -35 -26 -12 -8 -7 37
1499540495254453897 -1 6 -8 8 5 1 -6 -41
1499540495285352945 -5 43 42 6 0 -2 -1 -50
1499540495336833000 -5 -68 -52 -2 -7 -4 0 9
1499540495386224031 -2 22 42 2 0 0 -5 -17
1499540495438453912 -4 -62 -37 -29 -5 -3 -3 1
1499540495489057064 -21 -71 -45 -7 -13 -6 -7 -82
1499540495562911033 -18 36 13 11 2 3 4 2
1499540495589948892 -6 -40 -34 -18 -4 -6 -4 11
1499540495640336036 -8 58 -15 -6 -4 -8 -15 -80
1499540495690540075 0 -103 -43 -12 -10 -5 1 0
1499540495742029905 1 33 14 23 7 -2 -6 -51
1499540495796818971 -5 -55 -36 7 -9 -6 -9 48
1499540495863425970 2 86 64 -10 -3 2 -4 49
1499540495893800973 4 50 22 -11 4 2 -1 -11
